,SampleNumber,TimeStamp,EMG1,EMG2,EMG3,EMG4,EMG5,EMG6,EMG7,EMG8
0,0,1503599958933,1,-2,0,1,-1,-3,-1,-2
1,1,1503599958941,-2,-2,1,0,0,0,-4,4
2,2,1503599958957,0,-1,-1,0,1,1,-3,-5
3,3,1503599958963,-3,0,0,0,-1,-2,0,0
4,4,1503599958979,5,3,0,-1,0,0,0,-31
5,5,1503599958985,-1,-1,0,-3,0,-1,0,1
6,6,1503599958995,-2,-2,-1,0,-2,-2,1,7
7,7,1503599959000,-1,-2,0,-1,0,0,-2,3
8,8,1503599959015,-4,0,1,-2,-3,0,-5,-10
9,9,1503599959023,-5,-1,-1,-1,1,-2,-1,0
10,10,1503599959031,0,-3,-4,-2,0,0,2,7
11,11,1503599959045,1,-2,4,-1,-2,0,0,-1
12,12,1503599959053,0,-1,-3,0,0,0,0,0
13,13,1503599959067,2,1,-1,0,-1,-1,-1,-1
14,14,1503599959076,0,0,0,-2,-2,-1,-1,8
15,15,1503599959083,-3,-2,0,0,0,-1,1,-2
16,16,1503599959091,-1,1,-1,0,-2,-1,1,3
17,17,1503599959108,1,0,-2,-1,-3,-1,-2,-4
18,18,1503599959114,0,-3,-2,-1,1,0,-1,2
19,19,1503599959120,4,2,0,0,0,0,-1,1
20,20,1503599959135,-3,-1,0,-2,0,-1,0,1
21,21,1503599959143,2,-1,0,0,0,-1,1,-2
22,22,1503599959151,3,-1,-1,0,0,-1,0,-1
23,23,1503599959165,-6,-1,-1,-1,-4,2,0,15
24,24,1503599959174,-3,0,-3,0,0,-1,-2,3
25,25,1503599959181,1,1,-3,-3,-1,-1,-2,-2
26,26,1503599959195,-3,-1,0,-2,-2,-1,1,0
27,27,1503599959203,1,-1,1,-1,0,-4,1,-3
28,28,1503599959212,5,-2,-1,2,1,-1,2,7
29,29,1503599959225,-2,-1,-2,-1,-2,2,0,1
30,30,1503599959233,-1,3,0,1,-1,-1,-4,-2
31,31,1503599959250,-1,-1,-3,1,0,0,-4,-5
32,32,1503599959256,-1,-1,-1,-3,-2,-1,-1,-1
33,33,1503599959263,-5,-1,1,1,1,0,0,-5
34,34,1503599959278,-2,1,0,-1,-3,-3,-1,0
35,35,1503599959285,1,2,2,-1,0,-1,-3,-2
36,36,1503599959293,-3,-2,0,-2,-2,0,-1,-3
37,37,1503599959309,2,-3,0,-2,-1,0,1,-4
38,38,1503599959317,-2,0,-2,1,-1,-1,0,-1
39,39,1503599959324,-2,2,0,-2,0,0,0,2
40,40,1503599959338,-1,-4,-1,-1,-1,1,-2,-1
41,41,1503599959346,0,0,-3,-1,-1,-3,-1,0
42,42,1503599959353,-3,2,0,0,-1,-2,-2,13
43,43,1503599959367,-1,-1,-2,-1,-1,0,-1,0
44,44,1503599959376,2,-2,-3,-3,-2,-1,2,-7
45,45,1503599959384,1,1,2,1,-1,-2,0,2
46,46,1503599959398,-2,0,-2,0,0,1,2,0
47,47,1503599959405,-2,-1,-1,-1,0,-3,-1,-5
48,48,1503599959413,4,0,2,0,0,-2,0,-14
49,49,1503599959427,-2,-4,-1,0,-1,-2,-2,-6
50,50,1503599959435,-2,-1,-1,-1,-1,-2,0,2
51,51,1503599959443,1,0,20,-1,0,0,3,-3
52,52,1503599959458,-1,-2,14,1,-2,-1,-3,2
53,53,1503599959465,-2,1,-24,0,-2,-1,-2,2
54,54,1503599959475,0,2,-6,-1,2,-1,-1,-8
55,55,1503599959487,-2,-3,-4,-1,-1,1,0,-1
56,56,1503599959495,-1,-1,-10,-1,-2,-1,-2,3
57,57,1503599959503,2,-2,-4,-2,-3,0,0,-1
58,58,1503599959518,-2,-1,-2,-1,0,-1,-3,4
59,59,1503599959528,0,4,2,0,1,0,-2,-15
60,60,1503599959534,-1,1,3,0,0,-1,-1,2
61,61,1503599959547,0,0,4,0,-1,-1,-2,0
62,62,1503599959555,0,1,4,0,0,-1,-3,-6
63,63,1503599959563,-4,0,6,0,-1,1,1,10
64,64,1503599959578,1,-2,-8,-1,1,0,1,5
65,65,1503599959586,-2,-1,-6,-2,-1,-2,-2,0
66,66,1503599959593,1,2,-2,-1,-2,-1,-1,-6
67,67,1503599959607,0,0,-1,-2,-1,-1,0,-15
68,68,1503599959608,-2,-1,-1,-1,0,-1,0,-1
69,69,1503599959615,-3,-2,-2,-1,-1,-1,1,2
70,70,1503599959623,0,0,-2,-1,2,-2,-5,-13
71,71,1503599959638,-1,0,2,-1,0,0,-1,-13
72,72,1503599959645,-2,-2,0,-1,-1,-1,0,5
73,73,1503599959653,0,-1,0,0,0,-1,-2,5
74,74,1503599959667,-1,-2,-2,-1,0,1,-2,0
75,75,1503599959677,-3,-3,-3,-3,-2,0,1,1
76,76,1503599959683,-2,-3,-2,-1,-2,-4,-2,3
77,77,1503599959698,5,1,0,1,-1,-1,0,-1
78,78,1503599959705,1,2,1,-1,-1,-1,1,2
79,79,1503599959713,0,1,4,-1,1,-1,0,0
80,80,1503599959727,6,-2,-5,0,-1,-1,2,-8
81,81,1503599959735,-1,1,32,0,-1,-1,-1,7
82,82,1503599959744,-3,-1,34,-4,-3,-4,-1,3
83,83,1503599959758,-2,1,-43,-2,-1,0,-2,-5
84,84,1503599959765,3,0,-33,0,-1,2,-2,2
85,85,1503599959773,0,-2,-14,-2,-2,0,-1,2
86,86,1503599959788,-2,-1,-3,1,0,0,0,4
87,87,1503599959796,0,-1,51,0,1,-1,0,-2
88,88,1503599959804,1,-1,11,0,-1,-3,-3,0
89,89,1503599959818,0,-2,-38,-3,-2,-1,2,0
90,90,1503599959825,1,2,12,-2,-1,-1,-1,4
91,91,1503599959833,0,0,-13,1,-2,-2,-1,0
92,92,1503599959848,-1,1,-1,1,0,1,-4,-8
93,93,1503599959855,-4,-5,8,-2,-2,-1,-2,-6
94,94,1503599959863,2,-2,-17,-2,1,-1,2,-11
95,95,1503599959878,1,-4,-7,0,1,1,2,6
96,96,1503599959886,-2,0,-2,0,-1,-1,-2,2
97,97,1503599959893,-1,1,28,0,-1,-3,-2,-5
98,98,1503599959907,-4,-1,-4,-1,1,0,0,-2
99,99,1503599959916,-4,0,-24,-3,-3,-1,-2,-2
100,100,1503599959923,0,0,-5,0,0,0,-1,-2
101,101,1503599959938,-1,-1,16,0,0,-1,-1,-3
102,102,1503599959952,-2,0,28,-1,-3,-2,1,5
103,103,1503599959954,-10,-1,-26,-2,-2,-1,-4,8
104,104,1503599959967,-1,-3,-21,-2,-1,-2,-1,3
105,105,1503599959975,-1,3,-8,-3,0,1,0,0
106,106,1503599959983,0,-2,-1,-1,0,0,-1,1
107,107,1503599959998,4,-2,26,0,0,-4,-1,-18
108,108,1503599960005,-1,-1,-7,0,1,1,1,-1
109,109,1503599960014,1,2,-9,1,0,-1,1,6
110,110,1503599960027,1,2,-2,-2,-3,-2,-3,-2
111,111,1503599960035,0,0,2,-1,1,0,0,2
112,112,1503599960045,-2,-1,-3,-1,-1,-1,0,5
113,113,1503599960058,1,1,2,0,-1,-2,-1,-3
114,114,1503599960065,-6,-1,1,-1,-1,-1,-1,2
115,115,1503599960074,3,-2,0,2,-1,0,-2,-31
116,116,1503599960089,0,-2,1,-3,-1,-2,-4,-1
117,117,1503599960095,1,0,-4,-1,-1,0,0,12
118,118,1503599960103,3,2,-1,-1,-1,0,1,-3
119,119,1503599960118,1,-2,1,-1,-2,-1,0,4
120,120,1503599960125,-3,0,0,-1,0,-1,0,3
121,121,1503599960133,-3,-1,9,-1,-1,-2,1,4
122,122,1503599960148,-2,0,-1,0,-1,0,1,2
123,123,1503599960156,1,2,-10,1,1,-2,-1,-9
124,124,1503599960170,1,0,-5,-2,-2,-2,-4,-4
125,125,1503599960179,-2,1,7,-1,-2,0,-4,11
126,126,1503599960186,4,-1,2,1,-2,-1,2,0
127,127,1503599960200,-1,-1,-11,-2,0,0,0,4
128,128,1503599960207,-3,0,-3,-2,-1,0,0,2
129,129,1503599960215,-1,0,15,-2,0,0,2,-1
130,130,1503599960230,3,2,-1,0,-2,0,0,-1
131,131,1503599960238,-1,-2,-11,-2,-1,-1,-2,-1
132,132,1503599960247,-7,1,-1,-1,0,-1,-2,-5
133,133,1503599960260,-1,0,-2,-1,-1,-1,-3,1
134,134,1503599960267,-2,-2,0,0,1,-1,-1,-1
135,135,1503599960275,0,0,2,-1,0,0,0,-3
136,136,1503599960290,-6,-2,2,-2,-2,-1,-1,8
137,137,1503599960298,-1,-1,-4,0,-1,-1,0,4
138,138,1503599960305,-1,-1,1,0,-1,0,-3,1
139,139,1503599960327,3,0,0,0,-1,0,-1,-1
140,140,1503599960328,1,-2,-2,0,-2,-1,0,-6
141,141,1503599960335,-1,2,0,-1,-2,-2,-1,-1
142,142,1503599960350,-4,0,2,1,-1,-2,-2,-14
143,143,1503599960358,-2,-2,-1,-1,1,-1,0,4
144,144,1503599960365,2,-1,-1,-2,0,0,-2,-7
145,145,1503599960381,0,-1,1,0,1,-1,0,-4
146,146,1503599960388,2,-1,0,-2,0,-1,1,4
147,147,1503599960395,2,0,0,2,-1,-1,-2,-3
148,148,1503599960410,1,0,1,-1,-1,0,0,-19
149,149,1503599960418,-3,0,2,-1,-1,-1,1,6
150,150,1503599960425,-2,2,-1,0,0,-2,0,1
151,151,1503599960440,0,-1,-2,-2,-2,0,-1,-4
152,152,1503599960447,-1,-3,0,-4,-1,-1,2,21
153,153,1503599960456,0,1,-2,0,-1,-2,0,7
154,154,1503599960470,1,3,2,-1,-1,-3,-2,0
155,155,1503599960478,-1,-2,-1,0,1,-2,-1,-3
156,156,1503599960485,-1,-1,31,-1,-2,2,0,3
157,157,1503599960500,0,1,-5,-4,-2,0,-2,-6
158,158,1503599960507,-4,-2,-30,-3,-1,-1,-3,9
159,159,1503599960515,-2,-2,-11,0,0,-2,0,4
160,160,1503599960530,-2,-3,-2,0,-2,0,0,-2
161,161,1503599960538,-1,-2,-3,-2,-2,-2,-1,9
162,162,1503599960548,-1,-1,-2,-1,0,-1,0,-1
163,163,1503599960560,-1,-1,1,1,0,0,-2,-3
164,164,1503599960567,0,1,-1,0,-1,-2,-1,-4
165,165,1503599960575,-2,1,4,-1,-1,0,0,-4
166,166,1503599960590,1,-2,69,1,-1,-1,-1,-5
167,167,1503599960598,1,-2,-18,-1,-1,0,-1,-5
168,168,1503599960605,0,0,-45,0,1,-1,0,-4
169,169,1503599960620,-8,-1,-19,-2,-1,0,0,3
170,170,1503599960627,6,-1,-4,0,1,1,2,-2
171,171,1503599960636,1,1,5,-3,-2,-2,-2,-2
172,172,1503599960650,-1,0,2,0,1,0,-2,1
173,173,1503599960658,2,2,10,1,0,1,-1,0
174,174,1503599960665,-2,-1,-14,-2,1,0,1,2
175,175,1503599960682,-3,-1,10,-2,-2,-1,0,-1
176,176,1503599960687,-4,-1,-6,0,-3,0,-1,-2
177,177,1503599960695,-1,-2,2,0,1,0,0,-2
178,178,1503599960710,-3,-2,-5,-1,-1,0,-3,1
179,179,1503599960718,-1,-2,1,0,-1,0,0,1
180,180,1503599960725,-5,-1,-2,-1,-3,-1,-4,5
181,181,1503599960740,1,-1,0,0,-2,-1,-2,-1
182,182,1503599960749,-2,0,-2,0,-2,-3,-1,-2
183,183,1503599960755,1,1,2,-1,-1,-1,-2,2
184,184,1503599960770,3,-2,-4,-1,1,-2,1,-1
185,185,1503599960778,-1,2,2,-1,0,-2,1,-3
186,186,1503599960787,1,-1,-1,-3,-1,0,-1,0
187,187,1503599960800,-1,-1,0,-2,-1,0,0,2
188,188,1503599960807,-1,1,1,0,1,0,-3,-3
189,189,1503599960816,-1,-2,-2,-1,0,0,-3,-5
190,190,1503599960830,0,0,-1,1,-2,-2,2,-1
191,191,1503599960845,-1,2,0,-2,-2,-1,0,-3
192,192,1503599960846,-5,-1,0,0,-1,-2,-5,-2
193,193,1503599960860,-1,-1,0,0,-1,-1,-1,-2
194,194,1503599960867,4,4,3,0,0,-1,-1,-3
195,195,1503599960875,-2,-4,-1,0,-1,0,-1,0
196,196,1503599960890,3,-3,-5,-1,0,0,1,7
197,197,1503599960898,-1,0,-4,-1,-2,-1,2,17
198,198,1503599960905,0,-1,-2,-1,-2,-1,-2,-2
199,199,1503599960921,0,1,2,-1,-1,-1,-3,-13
200,200,1503599960929,0,1,2,-1,1,-1,2,0
201,201,1503599960938,0,1,2,2,1,-1,-2,0
202,202,1503599960939,-1,-1,0,-1,0,-1,-3,-4
203,203,1503599960951,-2,-2,-3,0,1,0,-2,-7
204,204,1503599960958,5,-1,1,-2,0,0,3,3
205,205,1503599960965,-4,-3,15,-2,-2,0,-3,1
206,206,1503599960983,1,0,-6,-1,-1,-1,1,-3
207,207,1503599960988,-1,0,-14,0,0,-2,0,0
208,208,1503599960996,-1,-1,-1,-1,-2,-3,-2,-3
209,209,1503599961010,-1,2,-4,-1,1,0,-1,-12
210,210,1503599961018,-3,-1,1,-1,1,-1,-2,2
211,211,1503599961026,-3,0,-1,0,-2,-1,-1,-1
212,212,1503599961041,-7,-1,-1,-3,-3,0,-1,-3
213,213,1503599961050,-1,0,2,-1,0,-1,-1,-2
214,214,1503599961060,2,-1,2,0,-1,-1,-1,-1
215,215,1503599961070,0,-1,-2,-4,-2,-1,0,5
216,216,1503599961078,1,2,2,1,-1,-1,-3,1
217,217,1503599961093,0,-1,1,-1,-1,-2,-2,-3
218,218,1503599961100,-1,-3,0,1,2,0,-2,3
219,219,1503599961108,-1,0,-3,-2,1,-2,-2,-1
220,220,1503599961126,-7,0,-1,-1,0,-2,-1,-4
221,221,1503599961129,-4,-4,-3,-2,0,-3,0,2
222,222,1503599961138,8,-2,-3,-2,1,1,4,4
223,223,1503599961152,0,1,-2,-1,-1,1,-2,1
224,224,1503599961160,-2,0,-1,-2,-2,-1,-2,-5
225,225,1503599961168,5,-1,-2,1,-1,0,2,6
226,226,1503599961185,-2,-1,1,1,-1,-3,-2,3
227,227,1503599961191,0,1,1,0,-1,-1,0,-8
228,228,1503599961198,-2,-1,-1,-2,0,-2,-1,0
229,229,1503599961212,-2,0,-2,-2,-2,0,-3,-2
230,230,1503599961221,-1,-1,-1,0,-1,0,-2,-5
231,231,1503599961235,-1,1,-2,0,-1,0,0,-1
232,232,1503599961243,6,2,0,1,0,-1,0,2
233,233,1503599961261,-3,0,-1,-3,0,0,-2,4
234,234,1503599961272,-2,0,-1,-1,0,0,0,7
235,235,1503599961280,2,1,0,0,0,-1,-1,2
236,236,1503599961288,-1,-3,-3,-2,-3,-1,-2,-8
237,237,1503599961303,-1,2,0,0,0,0,-3,-7
238,238,1503599961309,-2,-4,-2,-1,-2,-2,-2,1
239,239,1503599961310,2,1,0,0,0,-1,-1,0
240,240,1503599961318,-4,-1,-1,0,-2,0,0,4
241,241,1503599961332,-2,0,-3,-1,-1,-2,0,-1
242,242,1503599961341,-5,-1,-1,-1,-2,-1,-2,-7
243,243,1503599961348,-1,-3,0,-1,-2,0,-1,0
244,244,1503599961363,-2,-2,-1,-2,0,0,1,1
245,245,1503599961369,3,0,-1,-1,0,-1,0,-6
246,246,1503599961378,0,-3,-2,0,-2,-1,-2,-4
247,247,1503599961395,-5,1,0,-3,1,-1,-1,1
248,248,1503599961400,3,2,1,0,0,1,2,-7
249,249,1503599961410,1,0,-3,1,-1,0,0,2
250,250,1503599961423,2,-2,-1,-1,-1,1,0,-1
251,251,1503599961430,-1,1,2,0,-2,-1,2,1
252,252,1503599961438,0,0,-1,-3,0,-1,-2,4
253,253,1503599961452,1,2,-3,-1,1,0,0,0
254,254,1503599961461,-2,1,0,-2,-2,-1,0,1
255,255,1503599961468,3,-2,0,0,-2,-2,-1,1
256,256,1503599961486,1,0,-1,-2,-1,-2,1,2
257,257,1503599961490,0,-4,0,0,-1,1,1,5
258,258,1503599961499,-1,0,-2,-1,-1,-1,0,1
259,259,1503599961512,-5,0,0,-2,0,1,-2,8
260,260,1503599961520,-4,-3,-2,-1,-1,0,0,-3
261,261,1503599961528,-3,-1,-1,-2,0,-2,-2,-2
262,262,1503599961543,-3,-2,-1,1,-2,-2,1,2
263,263,1503599961549,2,-1,-1,-1,-2,-1,-5,-6
264,264,1503599961558,0,-2,-1,-2,-1,-2,-1,-3
265,265,1503599961572,-1,0,-1,0,0,-1,-1,-3
266,266,1503599961580,2,0,-2,0,-3,1,-2,1
267,267,1503599961588,-4,1,1,1,0,-1,1,10
268,268,1503599961603,-6,-2,-2,-1,-1,-2,-2,-1
269,269,1503599961609,5,-1,0,-3,0,1,-1,-15
270,270,1503599961610,-1,1,0,-1,-2,-1,-3,0
271,271,1503599961620,0,3,-1,0,1,-2,-1,4
272,272,1503599961632,-4,-3,-3,0,2,0,-1,-4
273,273,1503599961640,0,0,0,-1,0,-1,-1,-5
274,274,1503599961648,2,0,-1,-1,-1,0,-1,-4
275,275,1503599961663,-3,-2,1,-2,1,-1,-1,-4
276,276,1503599961669,-1,-1,0,-2,-1,-1,-2,-8
277,277,1503599961687,0,-1,-1,-2,-1,0,-3,-7
278,278,1503599961692,-2,1,-2,-1,-1,0,-3,-7
279,279,1503599961700,-1,0,-1,0,-1,-2,0,5
280,280,1503599961708,-1,1,0,-2,-1,-2,-2,-10
281,281,1503599961724,-1,-1,0,0,-2,2,0,1
282,282,1503599961730,-3,-3,-2,1,0,-1,-1,2
283,283,1503599961738,-1,-2,-2,-2,-1,0,-2,-4
284,284,1503599961754,2,0,-1,-1,-1,0,1,-1
285,285,1503599961760,-2,-1,-1,0,1,-1,-2,-1
286,286,1503599961768,3,-2,-2,-2,-3,-2,1,3
287,287,1503599961783,1,0,-1,-3,-2,-1,1,-3
288,288,1503599961791,-4,-1,-1,-2,-2,-1,-1,2
289,289,1503599961798,-1,0,0,0,0,-1,1,1
290,290,1503599961812,4,-1,1,-1,-1,-2,-2,-8
291,291,1503599961822,-2,0,0,0,-1,-1,-2,1
292,292,1503599961829,0,3,2,0,-1,-1,-2,1
293,293,1503599961843,1,-1,1,0,-3,0,1,-2
294,294,1503599961849,-2,-1,-4,0,1,0,0,8
295,295,1503599961859,-2,-3,-4,-2,0,-1,0,-1
296,296,1503599961873,0,0,-2,-3,0,0,-1,-1
297,297,1503599961880,0,-1,-2,-2,0,-3,-3,-3
298,298,1503599961897,0,1,-3,-1,-1,-1,1,0
299,299,1503599961903,0,3,1,-1,0,-2,-2,-3
300,300,1503599961911,-3,-5,-2,-1,-1,-1,0,-5
301,301,1503599961918,-1,0,-1,0,-1,-2,-1,3
302,302,1503599961934,1,-1,2,-1,-2,1,0,-3
303,303,1503599961940,-2,1,0,-1,1,-1,-1,0
304,304,1503599961959,1,0,0,0,0,0,0,0
305,305,1503599961963,0,-1,-1,-1,-1,1,0,-1
306,306,1503599961964,-2,0,0,-1,-1,-1,-3,-2
307,307,1503599961971,-1,1,-1,1,-2,-1,0,1
308,308,1503599961978,1,-1,0,1,0,0,-2,3
309,309,1503599961995,4,-1,-1,1,1,-2,0,-1
310,310,1503599962000,-1,-3,-2,-2,-2,1,1,2
311,311,1503599962016,-2,0,-2,-1,-2,-2,-4,-1
312,312,1503599962023,-4,-2,-3,0,-1,0,2,4
313,313,1503599962031,0,0,-3,-3,0,-1,-1,2
314,314,1503599962045,5,1,-1,-2,-1,0,-2,-3
315,315,1503599962055,-1,0,-1,0,0,-1,0,0
316,316,1503599962061,-1,1,1,-2,-1,0,-1,-1
317,317,1503599962076,-2,-2,-1,-1,-1,-2,0,5
318,318,1503599962083,0,-3,-2,0,-1,-2,2,-3
319,319,1503599962093,-3,0,0,-2,-3,1,-2,0
320,320,1503599962105,1,-2,-1,-1,2,-1,-3,-4
321,321,1503599962113,0,-1,2,0,3,-1,1,-3
322,322,1503599962122,-2,-2,-2,-3,-3,-1,0,4
323,323,1503599962123,0,0,-2,0,-1,-1,1,-7
324,324,1503599962136,-4,-1,-4,-1,-2,-2,-1,-3
325,325,1503599962143,-1,2,0,-1,-3,-1,-1,4
326,326,1503599962151,2,-1,-1,-1,-1,2,0,-3
327,327,1503599962165,-3,-1,0,0,1,0,0,0
328,328,1503599962173,-5,-3,-2,-2,-3,0,-1,1
329,329,1503599962180,1,1,-3,-1,1,-2,1,0
330,330,1503599962196,1,-3,-1,-3,-1,-1,0,-3
331,331,1503599962203,-1,-1,-1,-1,-1,0,-1,5
332,332,1503599962211,-2,-1,1,0,-1,0,0,-5
333,333,1503599962226,-1,1,0,0,0,1,-3,-3
334,334,1503599962233,-4,-3,0,1,0,0,-2,11
335,335,1503599962240,1,-1,1,1,-1,-1,-1,-2
336,336,1503599962265,-3,-2,-2,-2,-3,-1,-3,-6
337,337,1503599962271,-5,1,-2,-1,1,-4,-2,-10
338,338,1503599962285,-3,-2,-1,-1,-2,1,-1,-3
339,339,1503599962294,1,1,0,1,2,-1,-1,-2
340,340,1503599962300,-6,-3,-1,-1,-1,0,0,-3
341,341,1503599962301,-1,0,-2,-1,2,-2,-1,9
342,342,1503599962316,3,-1,-1,1,0,0,-1,-5
343,343,1503599962324,3,1,-1,0,0,-1,-2,0
344,344,1503599962331,-1,2,0,-1,-1,0,-1,1
345,345,1503599962345,-1,1,-2,-1,-1,-1,1,-6
346,346,1503599962353,-2,-2,-2,1,-1,0,0,3
347,347,1503599962360,-1,0,3,0,1,-1,-1,0
348,348,1503599962377,0,0,-1,-1,-1,0,-1,-5
349,349,1503599962383,-2,-1,-2,-2,1,-2,-1,1
350,350,1503599962391,0,0,0,-2,-1,-1,0,-10
351,351,1503599962405,-2,-2,-2,-2,-3,-2,-2,-3
352,352,1503599962413,2,0,-1,-3,0,-2,0,4
353,353,1503599962420,0,-4,-3,-1,-2,0,-2,-11
354,354,1503599962436,3,0,1,1,0,1,1,7
355,355,1503599962443,1,4,1,-2,-2,1,-2,3
356,356,1503599962451,1,1,1,-1,-1,-1,-2,-4
357,357,1503599962466,-1,-3,-2,-3,-3,-2,-1,1
358,358,1503599962473,-1,0,-2,0,-4,-2,-2,-1
359,359,1503599962480,-2,-1,-3,-1,1,-1,-2,0
360,360,1503599962496,-3,-2,-2,0,0,-1,-1,-3
361,361,1503599962502,0,1,0,2,-1,0,-1,-2
362,362,1503599962503,3,-1,-2,-1,-3,-1,0,1
363,363,1503599962518,1,-4,-2,-1,-2,-2,-3,-16
364,364,1503599962526,-4,-1,2,-1,0,-1,-2,1
365,365,1503599962540,-2,-1,-1,-1,1,-1,0,0
366,366,1503599962541,-2,0,-2,1,1,0,-1,-7
367,367,1503599962561,-1,-1,1,-1,-1,0,0,1
368,368,1503599962563,2,2,0,-1,-1,0,2,2
369,369,1503599962571,-4,-1,0,2,-1,-1,-3,0
370,370,1503599962585,2,2,0,-2,0,-2,1,3
371,371,1503599962594,-4,-1,-1,-2,-1,-2,-1,9
372,372,1503599962600,0,0,-2,0,-1,1,1,2
373,373,1503599962616,-1,0,-3,-2,0,2,0,4
374,374,1503599962625,-1,-1,-1,-1,0,-2,1,2
375,375,1503599962631,3,0,0,0,-2,-2,0,-1
376,376,1503599962645,-1,-4,-3,-1,-1,-3,-1,-5
377,377,1503599962653,-1,-1,-1,-2,0,1,-1,-1
378,378,1503599962661,-2,1,-2,0,0,-1,1,0
379,379,1503599962676,0,-1,-5,-5,-3,-4,0,3
380,380,1503599962683,-2,-3,1,-1,-3,0,-2,-4
381,381,1503599962693,-4,-3,-2,-2,-1,1,-1,-7
382,382,1503599962705,4,4,1,0,1,-1,2,-1
383,383,1503599962713,-3,-1,-2,0,-1,0,-1,3
384,384,1503599962720,-4,0,-1,-1,-2,0,-1,1
385,385,1503599962735,-1,1,0,-1,-1,-2,0,1
386,386,1503599962736,3,1,-2,-2,-1,-3,0,-2
387,387,1503599962742,-2,-2,0,0,-2,-1,-2,-3
388,388,1503599962751,0,1,-1,-1,0,0,0,-1
389,389,1503599962765,0,-1,0,-1,0,0,0,2
390,390,1503599962773,-1,-3,-4,-2,-1,-2,-3,-3
391,391,1503599962780,3,0,0,2,0,1,-1,2
392,392,1503599962796,1,2,1,0,-3,-1,0,2
393,393,1503599962803,-1,0,-1,0,-2,-1,-2,-1
394,394,1503599962811,-2,-5,-1,0,1,-1,-4,0
395,395,1503599962825,-1,1,-2,0,1,-2,0,2
396,396,1503599962833,4,4,3,3,2,-2,-2,-2
397,397,1503599962840,-2,-1,-1,0,0,-2,-2,-5
398,398,1503599962856,-2,1,-1,-1,0,-2,2,-2
399,399,1503599962863,-3,-1,-1,-1,-1,-1,-2,-4
400,400,1503599962871,1,-2,0,0,0,2,-1,-17
401,401,1503599962885,-7,-5,-3,-4,-1,0,-2,-1
402,402,1503599962893,-1,-1,-2,-1,-1,0,1,5
403,403,1503599962901,-2,-1,0,0,0,1,0,-3
404,404,1503599962916,-2,1,1,-2,-2,-1,1,7
405,405,1503599962923,3,-2,-2,-3,1,0,0,1
406,406,1503599962931,-2,-1,0,0,-1,-1,-2,-2
407,407,1503599962945,0,2,0,1,-2,1,-1,-2
408,408,1503599962953,-3,0,-2,-2,-2,-1,-3,-4
409,409,1503599962968,-3,-2,-3,-2,-1,-1,0,13
410,410,1503599962976,0,0,-1,-1,0,-2,-1,3
411,411,1503599962982,0,0,-2,-1,-1,1,0,5
412,412,1503599962983,-1,0,-1,-2,-2,-2,-1,6
413,413,1503599962998,-3,-2,-1,-2,-2,-1,3,11
414,414,1503599963005,2,-1,0,0,1,-1,-2,-7
415,415,1503599963013,-3,-1,-1,-1,0,-1,-2,-6
416,416,1503599963028,0,0,-1,-1,0,-1,-1,-6
417,417,1503599963036,-3,0,0,0,-1,-2,-1,1
418,418,1503599963043,2,0,1,1,0,-1,-1,-4
419,419,1503599963060,1,1,-1,-2,1,0,-4,-34
420,420,1503599963065,0,0,0,-1,-2,-1,0,2
421,421,1503599963073,5,1,-1,-1,-2,2,1,-9
422,422,1503599963088,-1,1,-2,1,-1,0,0,-3
423,423,1503599963096,0,-2,-1,-1,0,0,2,7
424,424,1503599963103,-3,-1,-1,-1,0,0,0,-1
425,425,1503599963118,1,-3,-1,0,-2,-1,0,11
426,426,1503599963127,-3,0,1,-1,-1,-2,-3,-5
427,427,1503599963133,-1,-1,-1,1,-1,0,1,3
428,428,1503599963148,6,2,0,-1,1,1,-1,-35
429,429,1503599963156,3,1,0,0,-1,-2,0,4
430,430,1503599963163,1,1,-1,-1,-2,0,1,10
431,431,1503599963178,-6,1,-1,0,-1,-2,-3,4
432,432,1503599963185,-1,2,1,-1,-1,-1,0,7
433,433,1503599963195,-1,-2,-1,0,-1,-2,1,5
434,434,1503599963208,0,-1,-2,-2,0,1,-1,-11
435,435,1503599963216,-3,-2,-2,-2,2,0,-3,-5
436,436,1503599963223,-2,-4,-2,-1,0,-3,-1,-1
437,437,1503599963238,1,0,0,0,-2,0,1,-3
438,438,1503599963245,-2,-1,-1,-2,0,-1,-3,8
439,439,1503599963253,-2,1,-1,-1,-1,-1,-1,3
440,440,1503599963268,-2,-1,-1,0,-2,1,2,4
441,441,1503599963276,1,0,2,-2,0,-3,0,-1
442,442,1503599963282,-2,-1,0,-1,0,-3,-2,-6
443,443,1503599963298,-3,-2,-3,-3,-2,-2,-1,2
444,444,1503599963305,-2,-2,0,0,-1,-2,-1,0
445,445,1503599963313,-1,0,-1,-1,0,1,1,-1
446,446,1503599963328,-1,0,-1,-3,-3,-2,-1,8
447,447,1503599963336,0,3,0,1,-1,0,1,0
448,448,1503599963343,-3,1,-2,1,0,0,-3,7
449,449,1503599963358,2,0,-1,-1,0,-2,-2,1
450,450,1503599963365,0,-3,-2,-2,0,0,2,-3
451,451,1503599963373,2,-1,1,-1,-1,0,-1,-5
452,452,1503599963388,1,-3,-1,-1,-2,-3,-2,-3
453,453,1503599963396,-2,0,-1,-2,0,0,-1,2
454,454,1503599963403,-1,1,0,-1,-2,-2,-2,2
455,455,1503599963424,0,0,-1,1,-1,-1,0,3
456,456,1503599963426,1,-1,-2,-1,0,0,2,-1
457,457,1503599963433,-2,-3,0,-1,-2,2,0,0
458,458,1503599963448,-1,-2,1,-2,0,1,-1,0
459,459,1503599963456,2,3,-3,-2,-2,-2,-2,-2
460,460,1503599963463,2,5,-3,-1,-2,-1,1,4
461,461,1503599963477,3,-5,1,-1,0,0,-2,-2
462,462,1503599963478,11,7,0,-1,0,-1,-2,-1
463,463,1503599963485,-6,1,-2,-2,1,-2,-1,-3
464,464,1503599963495,-3,-3,-4,-1,-1,-1,0,0
465,465,1503599963508,1,16,7,2,-1,1,-2,-3
466,466,1503599963516,3,-4,-3,-4,-1,-2,-1,0
467,467,1503599963522,7,6,0,-2,2,2,1,4
468,468,1503599963523,-1,3,-1,2,3,1,-1,-3
469,469,1503599963538,-22,-13,-1,-2,0,-4,-2,-3
470,470,1503599963545,12,4,1,7,-1,-1,-2,-1
471,471,1503599963553,13,7,5,-2,-7,-13,0,2
472,472,1503599963568,-16,-27,-16,-8,-6,-11,-3,-9
473,473,1503599963575,4,18,-7,-3,-1,-4,-4,0
474,474,1503599963576,-1,5,12,7,1,-8,-1,-2
475,475,1503599963582,-2,-9,-2,-2,-1,1,1,3
476,476,1503599963598,16,46,10,-1,-1,3,-3,-2
477,477,1503599963605,5,0,-1,0,2,-1,-1,0
478,478,1503599963613,-16,-12,-8,-2,-3,5,-2,-3
479,479,1503599963629,-5,-1,1,-1,1,5,-1,8
480,480,1503599963636,-8,-9,-3,1,4,12,-1,-1
481,481,1503599963643,-3,2,6,-1,1,6,-2,-2
482,482,1503599963659,10,10,2,0,2,0,0,3
483,483,1503599963665,14,9,-1,-2,0,-5,-2,-3
484,484,1503599963673,4,10,-6,-5,-2,-9,-5,-23
485,485,1503599963688,-2,0,5,1,-2,-22,-1,-1
486,486,1503599963697,-14,-22,-6,1,4,8,1,5
487,487,1503599963703,1,1,-7,-5,-5,0,1,0
488,488,1503599963718,-11,-17,-1,-1,-5,18,2,2
489,489,1503599963725,-4,-7,0,5,0,7,2,2
490,490,1503599963741,-3,-11,-10,-4,0,-2,1,2
491,491,1503599963754,-17,-5,-2,-3,-3,-13,1,-5
492,492,1503599963756,2,7,8,4,6,-12,-4,-1
493,493,1503599963764,9,12,-4,1,17,53,2,0
494,494,1503599963778,11,29,10,0,-3,-19,-3,3
495,495,1503599963785,-7,-11,31,9,22,72,2,1
496,496,1503599963801,-3,-47,-21,-8,-20,-48,-3,5
497,497,1503599963808,-22,-1,-8,-7,-1,-33,-3,-3
498,498,1503599963823,1,10,22,6,3,34,0,4
499,499,1503599963824,-9,4,30,5,-2,-69,-3,8
500,500,1503599963839,19,-21,-12,-3,-14,-70,-4,-10
501,501,1503599963845,-18,1,-19,-7,-19,-10,-2,-4
502,502,1503599963861,11,-8,-3,1,11,-2,-2,4
503,503,1503599963869,25,-2,-8,-2,-2,-30,-1,-4
504,504,1503599963876,-24,-23,-8,-1,-8,99,7,0
505,505,1503599963882,6,-2,-17,-1,-2,42,-2,-2
506,506,1503599963899,-7,-18,-17,-6,14,43,-1,-1
507,507,1503599963906,4,-27,-14,3,-2,16,-2,-5
508,508,1503599963920,1,13,5,0,10,43,1,1
509,509,1503599963928,28,5,-16,-9,-6,-31,-2,-6
510,510,1503599963936,-4,22,-3,-3,14,11,8,7
511,511,1503599963950,-3,24,19,5,-4,1,4,8
512,512,1503599963958,4,25,9,-2,-17,-43,-8,-3
513,513,1503599963966,1,25,4,4,25,103,8,4
514,514,1503599963980,22,8,9,6,14,0,4,-4
515,515,1503599963988,-12,1,-10,-15,6,-14,1,2
516,516,1503599963998,2,-26,-12,0,1,-28,-8,0
517,517,1503599964010,-2,-20,-10,1,22,-3,2,9
518,518,1503599964018,-16,-7,6,1,-12,-7,-2,-11
519,519,1503599964025,-14,-16,11,9,-14,-43,-1,-1
520,520,1503599964040,-5,32,41,8,24,43,5,1
521,521,1503599964048,19,10,-14,-12,-23,15,-2,-4
522,522,1503599964056,-3,-21,-4,5,-4,-3,-3,-16
523,523,1503599964070,-6,-26,-3,3,-11,-40,-1,-7
524,524,1503599964078,-8,50,25,0,-38,-11,6,12
525,525,1503599964085,11,18,12,8,3,-20,-8,-9
526,526,1503599964100,-29,-29,-23,-10,-24,-28,-3,-16
527,527,1503599964108,-12,-13,-10,6,-11,-44,-3,4
528,528,1503599964115,-1,-33,-2,-20,-38,-28,-4,22
529,529,1503599964133,13,11,-11,-2,-11,-23,4,4
530,530,1503599964138,-24,-78,-20,12,63,4,-10,5
531,531,1503599964145,9,-20,-27,-17,-29,1,-12,-6
532,532,1503599964160,7,66,13,3,-48,29,11,-3
533,533,1503599964168,12,-2,19,-10,-5,51,16,6
534,534,1503599964175,-29,-52,-15,5,6,-42,-22,-3
535,535,1503599964190,-15,6,-19,13,30,-23,-31,-40
536,536,1503599964199,21,118,98,-4,-70,99,7,-10
537,537,1503599964205,28,28,-31,7,-18,127,0,-6
538,538,1503599964220,-61,25,72,52,-6,-128,-27,-35
539,539,1503599964228,-30,-108,17,2,-93,-46,29,-29
540,540,1503599964236,14,114,-44,-18,4,16,2,23
541,541,1503599964250,-12,33,-63,-57,-33,7,-13,-19
542,542,1503599964258,-16,-105,-128,-52,-93,33,-41,15
543,543,1503599964268,-42,-113,-91,-6,91,-94,-7,-42
544,544,1503599964280,50,71,57,18,49,45,13,-32
545,545,1503599964287,12,-41,60,-15,-84,-43,11,25
546,546,1503599964295,-63,-10,-12,37,110,-120,30,4
547,547,1503599964310,33,103,63,-16,15,79,46,17
548,548,1503599964318,-8,52,8,3,-18,-44,-8,16
549,549,1503599964325,-55,-72,-57,35,78,-14,-26,16
550,550,1503599964340,119,-128,-94,-37,63,78,30,8
551,551,1503599964348,16,83,47,22,101,-107,-1,12
552,552,1503599964355,-29,-101,-66,-54,-19,27,23,4
553,553,1503599964356,-3,35,46,14,98,58,2,-16
554,554,1503599964370,-23,27,14,3,-114,15,-6,18
555,555,1503599964378,7,-48,-31,-10,-128,-105,-26,-27
556,556,1503599964385,55,28,31,6,9,7,16,11
557,557,1503599964401,-49,-70,20,-25,-44,19,29,10
558,558,1503599964408,11,-9,-9,-6,-38,-59,-18,2
559,559,1503599964415,32,-22,-46,-5,108,31,12,17
560,560,1503599964430,-3,91,62,16,77,40,-17,-13
561,561,1503599964438,-1,4,-40,-15,33,70,19,-5
562,562,1503599964445,-8,77,23,8,-41,114,20,-5
563,563,1503599964460,1,17,7,-17,29,46,17,1
564,564,1503599964468,-33,-79,-39,4,1,-37,-19,8
565,565,1503599964476,10,16,-17,0,-5,-36,-15,19
566,566,1503599964490,5,-35,-28,-15,8,34,0,17
567,567,1503599964498,-10,-18,8,11,7,0,-3,0
568,568,1503599964505,4,7,26,6,43,11,1,-26
569,569,1503599964520,1,-65,-22,3,14,23,-3,2
570,570,1503599964528,20,-7,-4,3,35,5,-6,-11
571,571,1503599964535,-10,25,-12,-14,-62,32,15,3
572,572,1503599964536,16,-45,-39,-7,-28,-90,-39,-31
573,573,1503599964550,0,18,-7,-7,27,-7,-7,13
574,574,1503599964559,-28,20,20,10,-42,-61,-16,-8
575,575,1503599964566,-1,8,-7,-2,-18,-21,-9,24
576,576,1503599964580,2,31,17,-2,-12,-18,9,10
577,577,1503599964588,1,0,17,-10,40,55,22,9
578,578,1503599964595,-4,-11,49,9,-10,-53,-7,2
579,579,1503599964596,5,19,18,5,6,15,1,4
580,580,1503599964610,20,-22,-29,6,-30,-12,19,-3
581,581,1503599964618,5,33,8,4,-12,-23,19,14
582,582,1503599964625,-24,-7,-4,-3,-12,-35,-10,-1
583,583,1503599964640,-25,79,33,6,-2,9,-12,-8
584,584,1503599964648,13,-25,1,-5,-4,-29,-5,11
585,585,1503599964655,-13,-9,-1,-9,7,20,11,7
586,586,1503599964656,-18,-9,-1,10,6,4,-11,-11
587,587,1503599964670,-5,1,6,8,3,12,12,-10
588,588,1503599964678,4,-30,33,4,0,9,2,17
589,589,1503599964685,-20,-8,32,0,-10,-18,7,-14
590,590,1503599964702,13,1,-10,1,13,15,6,-1
591,591,1503599964708,-22,1,-26,-1,-10,-19,-14,23
592,592,1503599964715,1,8,-40,15,7,15,-21,-21
593,593,1503599964716,2,-8,-21,-4,-3,9,14,-7
594,594,1503599964730,13,-6,-12,16,-2,-7,-32,11
595,595,1503599964739,35,22,13,-4,1,-10,-16,-9
596,596,1503599964746,-68,-5,11,2,8,2,29,-44
597,597,1503599964760,21,-18,-10,-3,-3,4,20,10
598,598,1503599964770,30,8,13,-1,-3,-25,-50,-21
599,599,1503599964775,12,-4,8,11,6,46,48,58
600,600,1503599964776,-53,-14,-6,-6,-4,-47,-30,-45
601,601,1503599964790,22,-13,-1,-9,-6,8,16,12
602,602,1503599964798,-51,-29,20,32,2,19,58,3
603,603,1503599964812,-11,21,-18,-10,-7,-3,17,-22
604,604,1503599964820,13,24,-13,-16,-17,-23,10,2
605,605,1503599964828,20,-20,-7,-1,1,9,-5,45
606,606,1503599964844,-24,-11,0,-2,3,-1,-16,11
607,607,1503599964850,14,1,-10,-4,-1,-13,-11,-4
608,608,1503599964858,12,-15,-25,-16,-5,0,-47,32
609,609,1503599964872,-37,-14,2,-1,-2,-2,7,-10
610,610,1503599964880,19,19,-2,-1,5,4,-27,-1
611,611,1503599964888,38,-3,3,-8,-15,-34,-22,-8
612,612,1503599964904,-10,43,6,-2,1,-6,25,-39
613,613,1503599964910,19,22,2,2,3,0,15,-69
614,614,1503599964918,19,-13,-4,-3,-2,5,37,7
615,615,1503599964932,-25,5,33,7,5,25,10,20
616,616,1503599964940,-78,1,7,9,3,4,-11,22
617,617,1503599964948,2,1,-28,-6,-2,-7,-15,-18
618,618,1503599964962,-17,-3,-11,-4,0,4,12,15
619,619,1503599964971,37,4,-8,-10,-2,3,11,22
620,620,1503599964978,36,-6,0,-4,-1,-15,-23,1
621,621,1503599964992,-20,-7,-7,-2,-2,0,-12,10
622,622,1503599965000,19,-33,-4,-3,-6,2,8,-30
623,623,1503599965008,19,6,-3,-3,-1,0,-4,26
624,624,1503599965022,-11,16,15,5,0,1,-16,50
625,625,1503599965030,24,15,18,16,-2,-28,-8,-7
626,626,1503599965039,13,-19,-10,-5,-6,9,-22,-1
627,627,1503599965052,14,-22,-5,0,8,20,0,-12
628,628,1503599965060,6,-15,-1,0,4,6,4,-40
629,629,1503599965075,-18,-19,-5,-3,0,18,1,6
630,630,1503599965082,73,14,-3,0,12,3,24,22
631,631,1503599965097,0,3,-1,1,-1,-5,0,11
632,632,1503599965099,20,6,8,5,1,-11,-9,0
633,633,1503599965112,-34,-10,23,-5,-4,-17,7,-4
634,634,1503599965120,-11,6,32,7,-2,7,5,4
635,635,1503599965127,-15,7,-8,-7,-7,-1,6,27
636,636,1503599965143,-8,-6,-20,-6,9,14,-1,6
637,637,1503599965150,-12,6,-18,-5,-2,-6,-7,19
638,638,1503599965158,-11,0,-3,2,-1,5,-5,22
639,639,1503599965173,-35,-12,-36,-5,-2,-20,-19,-10
640,640,1503599965180,-24,-2,-14,-6,-26,-79,4,-10
641,641,1503599965187,4,34,-4,-1,1,18,12,-16
642,642,1503599965202,-48,-6,4,3,5,1,2,-20
643,643,1503599965211,19,17,5,9,2,-7,-6,1
644,644,1503599965218,19,-7,-5,-6,-1,19,-1,2
645,645,1503599965232,-12,-20,-12,-3,2,19,13,6
646,646,1503599965240,15,23,5,0,0,9,-15,-12
647,647,1503599965248,-29,-4,24,5,-2,-13,-19,-27
648,648,1503599965262,11,-1,-5,-5,-11,-29,-12,6
649,649,1503599965270,47,1,2,3,11,15,-4,1
650,650,1503599965278,23,-9,-17,-3,4,7,1,-7
651,651,1503599965292,33,-13,-12,-3,-4,1,4,13
652,652,1503599965300,-22,14,8,-4,-4,3,-2,4
653,653,1503599965309,20,-1,4,0,1,5,3,7
654,654,1503599965323,-15,-17,-17,-3,5,17,-6,-8
655,655,1503599965330,-22,-1,10,1,-2,0,3,-2
656,656,1503599965340,10,-4,0,-7,-4,-6,-8,-11
657,657,1503599965352,16,10,-1,-2,-2,4,2,7
658,658,1503599965360,27,15,16,8,4,2,-1,-12
659,659,1503599965368,-52,-15,-6,-4,-3,0,-6,-7
660,660,1503599965383,-24,25,-11,-5,-1,3,-1,-4
661,661,1503599965390,-17,-33,-19,-3,1,1,4,4
662,662,1503599965398,4,-29,13,4,-2,1,4,1
663,663,1503599965413,0,6,2,-3,-3,-5,-3,-7
664,664,1503599965420,-19,-23,12,4,0,-4,1,-6
665,665,1503599965427,-4,2,12,0,4,-9,2,-2
666,666,1503599965444,20,-3,-4,7,9,15,2,-29
667,667,1503599965450,15,26,-10,-5,-5,-2,-3,0
668,668,1503599965458,5,-2,-19,-8,-4,-7,0,-2
669,669,1503599965472,-10,7,12,3,0,3,-3,-10
670,670,1503599965480,-17,-18,-14,-3,-3,9,-1,5
671,671,1503599965488,-7,-1,17,1,-3,3,3,5
672,672,1503599965503,-2,12,9,-3,-3,7,0,4
673,673,1503599965511,-2,-6,-5,1,-1,4,-1,-2
674,674,1503599965518,5,8,-20,-8,-3,-6,2,3
675,675,1503599965532,-25,-24,-6,-3,-8,0,-4,0
676,676,1503599965542,-33,-12,-6,8,2,-1,0,-13
677,677,1503599965548,-14,-20,0,-1,4,22,1,-4
678,678,1503599965562,11,1,9,-2,0,-3,-2,8
679,679,1503599965570,22,23,2,4,-2,-5,-2,4
680,680,1503599965578,5,6,6,2,2,10,3,5
681,681,1503599965592,-6,4,10,-3,2,4,-5,-3
682,682,1503599965600,11,10,2,0,3,-4,4,7
683,683,1503599965609,-3,-23,-6,4,1,-5,-6,0
684,684,1503599965622,6,20,38,3,1,-6,0,-15
685,685,1503599965630,-67,-11,-8,-8,-5,-17,-4,-14
686,686,1503599965638,1,8,12,8,3,-20,-2,3
687,687,1503599965652,10,-10,2,-2,-7,-3,1,6
688,688,1503599965660,6,-7,-15,-3,3,11,8,-1
689,689,1503599965667,-42,-11,-8,-2,2,20,2,-3
690,690,1503599965683,12,-3,-3,-2,-11,-9,-5,19
691,691,1503599965690,31,13,-18,-3,-3,-12,5,24
692,692,1503599965698,-2,25,15,5,2,-2,-10,-30
693,693,1503599965712,39,4,17,5,3,1,-4,1
694,694,1503599965720,11,-8,-23,-8,6,8,8,17
695,695,1503599965727,-9,-31,-12,-7,-7,-1,-5,-1
696,696,1503599965748,-19,-31,-20,-6,1,-4,-9,-8
697,697,1503599965750,-28,-7,-13,1,4,-5,4,13
698,698,1503599965765,-2,11,-6,-4,-4,-8,1,23
699,699,1503599965772,25,19,2,-1,-8,-10,-3,-9
700,700,1503599965780,-36,9,5,0,-9,-11,-1,-20
701,701,1503599965794,-3,8,-12,-2,14,1,-9,-20
702,702,1503599965802,23,-8,-5,-6,-5,-9,-2,27
703,703,1503599965811,2,7,-8,-6,9,7,12,-13
704,704,1503599965825,-8,7,8,7,8,9,5,16
705,705,1503599965832,54,23,54,19,-1,-12,-6,13
706,706,1503599965840,12,30,20,5,-2,-23,-4,12
707,707,1503599965854,11,12,-1,-3,-11,-21,-1,-3
708,708,1503599965862,-33,-37,-8,0,17,26,9,2
709,709,1503599965870,61,0,-5,3,-5,-5,6,-37
710,710,1503599965886,-32,-29,-21,-3,-11,-11,-15,-7
711,711,1503599965893,-17,8,19,2,0,1,-1,16
712,712,1503599965901,30,-5,3,4,2,18,12,-4
713,713,1503599965914,-24,-14,-2,-4,-18,-35,-4,-14
714,714,1503599965922,4,12,10,-1,-2,10,3,6
715,715,1503599965930,-64,-16,-2,-3,8,14,1,0
716,716,1503599965946,85,24,-14,-13,-13,-32,-4,-11
717,717,1503599965953,17,5,6,2,-4,28,9,18
718,718,1503599965967,-16,11,25,7,26,78,-2,-8
719,719,1503599965968,1,-6,-14,-3,-6,26,2,4
720,720,1503599965974,-46,9,-11,-5,-12,-12,-9,7
721,721,1503599965983,9,-5,4,2,8,2,13,10
722,722,1503599965990,-25,-22,0,-1,6,-14,-12,1
723,723,1503599966005,-51,18,32,1,-12,14,-17,-30
724,724,1503599966012,1,-8,-12,-20,-9,33,1,-34
725,725,1503599966020,-27,-22,-2,-4,-22,-34,-9,5
726,726,1503599966034,15,4,-20,-8,-2,-8,1,-2
727,727,1503599966046,-10,11,27,3,3,0,2,-21
728,728,1503599966050,33,-22,-19,-1,-13,-3,-7,8
729,729,1503599966065,39,59,21,14,15,25,3,11
730,730,1503599966072,12,48,14,22,36,29,-4,0
731,731,1503599966080,-11,-15,-10,-1,3,42,-14,-19
732,732,1503599966094,-1,-3,16,16,7,5,-6,11
733,733,1503599966102,41,-41,-46,-11,-1,-13,-6,12
734,734,1503599966113,-15,-27,-13,-3,-3,-31,-1,-1
735,735,1503599966125,-43,-16,-16,-7,-6,-2,16,11
736,736,1503599966132,-14,41,23,5,9,4,10,3
737,737,1503599966140,27,22,5,-7,-10,17,-9,-6
738,738,1503599966154,-2,-11,-14,-8,2,13,1,-10
739,739,1503599966162,-77,-24,-5,-1,-6,-50,1,-6
740,740,1503599966170,30,-7,-15,-6,-5,3,-4,-17
741,741,1503599966185,-52,-36,-8,-3,-13,10,-1,-31
742,742,1503599966192,6,-12,20,1,-5,-17,-3,-1
743,743,1503599966200,90,89,33,13,10,-4,-9,23
744,744,1503599966214,-24,-23,2,2,2,13,15,-2
745,745,1503599966222,-22,-87,-18,-10,4,22,0,6
746,746,1503599966230,66,33,-6,-11,-24,-80,-2,16
747,747,1503599966247,-6,22,-9,-6,4,-5,-3,-1
748,748,1503599966252,-92,27,22,5,16,1,-10,-18
749,749,1503599966260,19,-26,-9,0,-9,-34,-7,-14
750,750,1503599966274,38,31,-6,-6,-22,26,1,15
751,751,1503599966282,-61,-14,-11,-3,5,15,3,-40
752,752,1503599966290,57,-35,5,7,6,-11,12,32
753,753,1503599966305,-40,-22,5,1,-3,-8,-13,12
754,754,1503599966315,-21,-28,-14,-8,7,61,-4,2
755,755,1503599966320,38,7,-14,-4,29,85,0,0
756,756,1503599966334,-7,-14,-14,4,3,20,13,8
757,757,1503599966342,49,30,-6,2,2,-53,1,12
758,758,1503599966357,36,-11,-7,-3,-10,-9,-3,-1
759,759,1503599966365,-5,16,20,7,0,4,10,20
760,760,1503599966381,4,5,0,-11,-18,-22,4,-3
761,761,1503599966394,-20,9,9,17,31,24,8,6
762,762,1503599966402,8,21,11,6,14,4,14,11
763,763,1503599966410,8,2,16,-1,-3,-9,0,5
764,764,1503599966425,11,-18,-13,2,10,6,-4,-13
765,765,1503599966432,28,8,-11,-4,1,-27,-9,5
766,766,1503599966440,-7,-11,-3,-2,-9,-7,-6,-9
767,767,1503599966454,-68,-31,-18,-13,-18,-16,-5,-12
768,768,1503599966462,16,40,18,7,-7,-1,-1,4
769,769,1503599966470,36,4,-1,-3,-2,6,7,-12
770,770,1503599966485,-13,-56,-27,-3,-4,-12,-1,-7
771,771,1503599966492,-30,18,13,-2,2,-2,-8,-15
772,772,1503599966504,-26,5,8,0,0,1,-3,-4
773,773,1503599966515,16,-43,-6,-7,-9,5,6,0
774,774,1503599966522,11,56,7,0,-6,-21,-14,1
775,775,1503599966530,10,17,11,4,9,9,8,16
776,776,1503599966545,-12,-27,-5,-2,3,21,8,3
777,777,1503599966553,-4,39,22,7,-4,-15,-11,20
778,778,1503599966560,35,-1,11,0,4,20,-6,0
779,779,1503599966574,7,9,4,-4,2,6,2,3
780,780,1503599966583,7,23,7,1,-4,-21,5,12
781,781,1503599966590,21,-7,-11,-6,-1,-3,0,8
782,782,1503599966605,26,-43,-16,-2,0,-17,-1,-8
783,783,1503599966612,-11,-12,-11,-13,-15,-13,-1,-2
784,784,1503599966620,-17,-18,-5,-1,-19,-38,12,19
785,785,1503599966634,16,22,7,-1,0,14,12,-20
786,786,1503599966642,41,13,2,2,2,12,13,-3
787,787,1503599966650,2,11,-14,-5,2,9,0,3
788,788,1503599966665,-22,27,0,-4,-7,-12,-10,3
789,789,1503599966672,-6,-35,-18,-6,-12,26,-5,-19
790,790,1503599966688,-26,-18,-2,3,6,11,-8,-28
791,791,1503599966694,19,21,4,6,2,-10,-10,-1
792,792,1503599966702,-12,-10,1,-1,1,7,-11,10
793,793,1503599966717,-34,-24,-16,-3,15,55,7,-11
794,794,1503599966726,-55,-11,-8,-6,-6,5,5,-1
795,795,1503599966732,-2,56,49,15,10,-5,5,17
796,796,1503599966749,21,25,-17,-6,-5,-13,-2,-7
797,797,1503599966754,-1,21,-1,-2,-5,-23,-6,-4
798,798,1503599966763,29,-31,-11,-5,-5,-21,-2,8
799,799,1503599966779,-62,-34,-14,-9,-16,-37,-17,-5
800,800,1503599966786,29,2,3,2,-4,-14,-9,5
801,801,1503599966792,-41,-13,-6,-5,-16,-14,-9,-18
802,802,1503599966808,-46,0,1,-2,-10,10,-11,-4
803,803,1503599966814,8,-23,-22,-5,-2,-5,1,9
804,804,1503599966823,23,15,11,2,9,3,5,1
805,805,1503599966837,-1,-26,5,9,14,29,-2,4
806,806,1503599966845,17,16,11,4,2,0,5,-3
807,807,1503599966856,-22,-18,-8,-1,8,-8,18,32
808,808,1503599966867,1,40,14,7,17,18,4,2
809,809,1503599966874,12,15,-1,-2,-11,-68,-2,-6
810,810,1503599966885,-32,-9,-5,2,-1,21,-7,-3
811,811,1503599966897,79,33,8,10,2,-5,7,-2
812,812,1503599966905,28,-14,2,5,6,-17,22,13
813,813,1503599966912,-16,-29,-7,-4,9,40,-6,-22
814,814,1503599966927,-47,6,18,-3,-19,-25,3,2
815,815,1503599966928,71,20,0,6,9,33,-4,3
816,816,1503599966934,27,36,20,-2,-4,10,-1,2
817,817,1503599966942,-51,-37,-15,-9,-4,-17,-12,3
818,818,1503599966958,45,68,-6,-3,-16,-49,1,10
819,819,1503599966965,-40,-25,5,-1,-5,5,2,-22
820,820,1503599966980,-18,29,-2,-1,-4,20,1,0
821,821,1503599966988,17,20,-19,-8,2,-7,-1,17
822,822,1503599966995,12,-7,16,4,7,8,9,5
823,823,1503599967002,-11,-33,-14,-10,-17,-16,3,-22
824,824,1503599967018,6,-12,6,3,5,14,-19,-19
825,825,1503599967025,-9,-19,3,3,5,2,-9,-10
826,826,1503599967041,44,28,-5,-3,3,10,10,15
827,827,1503599967047,-28,13,1,0,-6,-54,-21,-18
828,828,1503599967055,-13,-40,-5,2,9,9,-10,-16
829,829,1503599967062,24,46,9,1,-11,0,2,11
830,830,1503599967078,11,-13,-28,-9,2,26,2,-21
831,831,1503599967085,-40,16,-10,-5,8,5,-43,8
832,832,1503599967100,-39,-23,-13,-5,2,17,5,-37
833,833,1503599967107,56,-27,-3,8,11,30,16,-3
834,834,1503599967121,-8,-48,-14,1,-2,-19,-10,21
835,835,1503599967123,-44,-68,7,0,-1,29,13,-11
836,836,1503599967138,-46,23,34,-1,-6,9,10,-15
837,837,1503599967145,51,89,47,4,0,-4,1,16
838,838,1503599967160,3,-15,-9,1,-6,-25,5,16
839,839,1503599967167,-16,-39,8,-1,1,2,-5,-25
840,840,1503599967168,-6,17,11,0,-7,-21,2,13
841,841,1503599967175,-51,0,-8,1,-8,-47,-28,3
842,842,1503599967182,9,-22,-13,5,4,8,19,-24
843,843,1503599967198,-14,23,-13,-8,0,-9,5,38
844,844,1503599967205,-5,-54,-34,2,-2,-10,11,16
845,845,1503599967221,48,-4,-23,-7,-2,-4,-19,-26
846,846,1503599967228,45,0,-18,-4,-1,26,13,21
847,847,1503599967235,-18,3,10,3,-4,11,-4,9
848,848,1503599967242,-58,42,-11,-10,0,8,-1,-11
849,849,1503599967260,63,26,0,-4,-20,-89,1,19
850,850,1503599967265,-36,-1,10,-3,4,-1,2,4
851,851,1503599967280,-16,-5,4,-6,2,16,-2,1
852,852,1503599967288,2,-29,-2,-7,-8,-29,-9,-15
853,853,1503599967296,38,66,19,5,-3,-2,1,-15
854,854,1503599967302,11,9,-2,8,10,67,9,1
855,855,1503599967318,-21,-2,21,7,4,25,0,-10
856,856,1503599967325,16,1,-16,-6,6,-9,12,18
857,857,1503599967340,-21,-17,26,6,6,22,0,-2
858,858,1503599967347,-65,9,33,7,-11,-45,-28,-6
859,859,1503599967355,-2,-20,-5,-7,0,10,2,-8
860,860,1503599967363,6,-93,-6,-1,-1,-16,-7,-28
861,861,1503599967378,-35,33,46,34,37,39,3,19
862,862,1503599967385,51,74,4,-3,0,-1,-4,11
863,863,1503599967401,-30,-63,-44,-13,-14,-6,-3,-10
864,864,1503599967407,14,19,2,-3,-4,-12,-3,-15
865,865,1503599967416,9,-11,-10,0,0,-16,-10,20
866,866,1503599967430,-79,17,10,-3,15,74,3,-21
867,867,1503599967438,12,-57,-35,0,8,31,20,-27
868,868,1503599967445,50,-5,2,3,-5,-42,-10,20
869,869,1503599967464,112,42,12,-5,2,12,14,-5
870,870,1503599967468,35,20,-1,-1,1,14,8,2
871,871,1503599967476,17,-1,-14,-6,-3,9,-6,23
872,872,1503599967482,34,63,29,11,7,57,3,-11
873,873,1503599967483,-48,-21,-6,-3,0,3,-10,-12
874,874,1503599967499,-18,-5,-13,0,4,34,29,14
875,875,1503599967505,-16,-57,-15,-3,-9,-10,-2,19
876,876,1503599967523,2,-8,1,2,3,0,-5,1
877,877,1503599967528,4,-52,-31,-10,-13,-1,-10,11
878,878,1503599967536,17,-32,-5,2,-2,-12,-20,-8
879,879,1503599967543,12,-34,-17,-6,-2,-33,8,11
880,880,1503599967558,37,-1,-8,-7,-1,6,10,18
881,881,1503599967567,-38,18,-6,6,4,-28,42,-4
882,882,1503599967581,-17,26,-2,-6,-5,-4,16,-38
883,883,1503599967591,33,32,14,3,-1,15,-16,-7
884,884,1503599967595,-64,54,-6,-2,-6,-11,-8,0
885,885,1503599967602,-3,19,-1,-2,2,1,7,0
886,886,1503599967618,-19,-20,17,0,-5,-37,1,15
1025,1025,1503599969013,-4,-50,-14,-1,-2,-15,-3,-5
1026,1026,1503599969020,-41,-13,1,-7,3,11,-3,-1
1027,1027,1503599969027,-20,12,-7,-1,5,-10,-1,-6
1028,1028,1503599969043,26,2,-15,-6,-3,-4,-16,2
1029,1029,1503599969050,-1,-53,-14,-8,-9,-11,0,4
1030,1030,1503599969058,-28,14,5,2,3,32,10,-7
1031,1031,1503599969073,-38,9,13,0,-3,0,-12,-26
1032,1032,1503599969080,29,19,2,6,1,-14,0,-4
1033,1033,1503599969094,-11,-33,-15,-6,-5,1,5,-22
1034,1034,1503599969103,-25,0,13,7,1,-3,6,-2
1035,1035,1503599969110,-19,-25,-2,-1,-8,-1,7,25
1036,1036,1503599969119,-26,-32,-11,3,1,5,10,-2
1037,1037,1503599969135,-33,-9,4,1,1,0,6,13
1038,1038,1503599969142,20,25,15,-2,-5,-7,5,10
1039,1039,1503599969147,-12,35,5,0,0,-13,-10,0
1040,1040,1503599969162,6,-9,-3,1,-2,11,8,-25
1041,1041,1503599969163,-16,-37,-13,-3,2,4,1,1
1042,1042,1503599969171,36,7,-2,-4,-8,-26,-8,3
1043,1043,1503599969178,-1,-15,-13,-1,-2,-24,-13,-41
1044,1044,1503599969200,26,13,6,3,2,20,3,5
1045,1045,1503599969202,-17,5,9,-5,-17,-12,-2,5
1046,1046,1503599969208,-8,40,40,20,6,-6,2,-6
1047,1047,1503599969222,6,-11,-3,-7,-4,-3,-11,5
1048,1048,1503599969230,10,-74,-23,-15,-3,15,-3,-1
1049,1049,1503599969238,-16,-15,-3,4,9,13,-7,2
1050,1050,1503599969253,12,3,-1,-1,3,5,13,16
1051,1051,1503599969260,9,-8,0,1,0,0,-1,-2
1052,1052,1503599969269,-22,-3,-10,-5,0,15,7,-15
1053,1053,1503599969282,64,45,-1,-7,-9,-8,2,10
1054,1054,1503599969290,25,-5,2,4,3,-18,-4,3
1055,1055,1503599969306,32,-7,1,12,0,-15,-14,-29
1056,1056,1503599969312,29,33,-9,-9,-4,5,12,9
1057,1057,1503599969320,9,1,-13,-10,-4,-23,0,15
1058,1058,1503599969327,-23,-20,-6,1,3,9,3,-3
1059,1059,1503599969343,25,-3,-4,-5,2,4,8,19
1060,1060,1503599969350,-71,-9,5,-2,-7,-7,-1,-6
1061,1061,1503599969358,-15,-19,0,2,-3,-3,-8,4
1062,1062,1503599969372,6,40,16,0,-4,6,10,-3
1063,1063,1503599969373,24,0,-6,5,1,0,-11,2
1064,1064,1503599969380,-53,-33,-6,0,-2,1,-3,6
1065,1065,1503599969387,1,-13,-4,-4,-7,-12,-6,-13
1066,1066,1503599969410,5,-12,-6,-3,-7,-31,-5,1
1067,1067,1503599969418,-49,-13,-3,0,7,16,-7,-4
1068,1068,1503599969432,4,7,-2,-4,4,17,2,-1
1069,1069,1503599969440,16,16,-4,-4,1,-7,14,8
1070,1070,1503599969447,27,-5,3,-5,-9,0,3,16
1071,1071,1503599969462,-28,-35,7,8,-1,-9,-2,-24
1072,1072,1503599969470,-16,-21,1,-3,9,12,7,3
1073,1073,1503599969478,34,20,-6,-6,-5,5,10,3
1074,1074,1503599969492,-17,25,15,1,-2,-1,-14,-7
1075,1075,1503599969503,40,29,20,16,14,-6,-12,8
1076,1076,1503599969514,0,0,-1,9,21,15,14,20
1077,1077,1503599969522,-12,9,0,-2,-11,-6,28,3
1078,1078,1503599969530,-30,-16,5,0,-5,-24,3,-19
1079,1079,1503599969545,8,-10,13,5,1,6,-2,0
1080,1080,1503599969552,32,35,18,1,2,17,-4,21
1081,1081,1503599969560,4,-14,6,0,2,6,13,12
1082,1082,1503599969574,36,3,-4,4,-8,-17,-22,-19
1083,1083,1503599969582,-56,28,1,4,8,12,-6,0
1084,1084,1503599969590,-31,-21,-5,-5,-10,-4,0,0
1085,1085,1503599969606,3,-20,-17,-12,-13,-13,-8,-5
1086,1086,1503599969613,8,14,-2,6,4,-3,-9,-18
1087,1087,1503599969620,35,59,6,-8,-4,-12,-12,-5
1088,1088,1503599969635,-1,-13,-3,5,16,39,9,11
1089,1089,1503599969642,-3,9,-10,-10,-2,-5,1,-17
1090,1090,1503599969650,5,-8,-10,-7,-14,-21,-3,-6
1091,1091,1503599969665,-3,21,7,-3,-6,3,-3,4
1092,1092,1503599969673,-24,12,6,-5,-20,-33,-27,-6
1093,1093,1503599969681,-15,-8,-12,0,-2,-5,2,0
1094,1094,1503599969694,48,63,12,0,-4,-15,-4,28
1095,1095,1503599969704,37,15,12,-2,5,21,1,-21
1096,1096,1503599969710,-14,-17,-19,-5,-4,-9,-4,2
1097,1097,1503599969725,52,31,-4,-3,-3,8,13,22
1098,1098,1503599969732,7,35,-7,-2,1,-8,-5,-3
1099,1099,1503599969741,8,-17,-5,8,4,7,-22,-7
1100,1100,1503599969754,-42,-4,9,10,-3,37,8,-46
1101,1101,1503599969762,-32,-22,-1,6,8,12,-4,-21
1102,1102,1503599969771,11,-27,-7,-6,6,11,8,8
1103,1103,1503599969785,-29,-29,4,1,0,-27,-3,-6
1104,1104,1503599969792,33,-31,-15,-6,5,22,14,-8
1105,1105,1503599969800,-45,-43,-8,15,10,7,3,4
1106,1106,1503599969814,14,1,4,-9,-16,-9,2,25
1107,1107,1503599969827,5,49,12,-8,-15,-9,-6,14
1108,1108,1503599969830,-5,27,14,4,19,48,16,-3
1109,1109,1503599969845,-15,-30,-10,6,8,20,8,-9
1110,1110,1503599969852,21,0,-3,-2,7,-5,-10,-25
1111,1111,1503599969860,24,18,-7,-15,-6,-1,14,29
1112,1112,1503599969874,-14,-21,-4,7,4,-12,17,-1
1113,1113,1503599969882,23,-24,-12,-11,-4,-25,-16,-6
1114,1114,1503599969890,-83,6,7,-8,1,17,-14,44
1115,1115,1503599969906,-14,-7,2,1,-7,-1,-4,-25
1116,1116,1503599969913,-48,-40,3,5,-3,-43,-13,-21
1117,1117,1503599969921,9,71,37,4,-3,-13,-6,4
1118,1118,1503599969934,16,4,-2,5,6,24,-12,-4
1119,1119,1503599969943,8,-49,-7,-1,-4,-8,1,23
1120,1120,1503599969950,14,2,-7,-1,0,13,4,18
1121,1121,1503599969965,1,-26,-4,2,10,47,22,18
1122,1122,1503599969973,45,51,8,5,11,8,-7,-11
1123,1123,1503599969981,1,-6,-8,-2,4,-11,-6,10
1124,1124,1503599969994,-8,-16,-12,-6,-12,-42,-2,2
1125,1125,1503599970002,13,37,11,5,-4,-26,-19,-4
1126,1126,1503599970010,-14,21,10,1,-2,-4,-13,-11
1127,1127,1503599970025,8,35,-5,-3,8,7,6,-12
1128,1128,1503599970032,-40,-24,5,6,6,29,-4,23
1129,1129,1503599970033,71,-8,-3,-1,-13,-40,4,12
1130,1130,1503599970040,24,-5,-15,-7,-2,9,12,-1
1131,1131,1503599970056,-19,-7,-9,-11,-17,-13,16,0
1132,1132,1503599970062,9,8,-5,-9,-10,25,9,-11
1133,1133,1503599970070,-10,-75,-12,6,1,9,-3,-17
1134,1134,1503599970085,-39,-39,-4,-2,-5,-10,-5,-18
1135,1135,1503599970092,-21,-18,-11,-10,-8,-7,-16,-8
1136,1136,1503599970100,27,42,8,2,-5,-15,-21,9
1137,1137,1503599970115,-10,2,-2,-5,6,9,-2,18
1138,1138,1503599970122,-39,-28,-6,-4,2,3,-11,-15
1139,1139,1503599970130,22,61,28,15,20,30,3,-7
1140,1140,1503599970145,-33,-6,9,5,-7,14,11,9
1141,1141,1503599970152,-24,-24,-5,-5,-5,-4,6,-11
1142,1142,1503599970160,-7,3,6,-6,-1,-18,0,6
1143,1143,1503599970174,2,11,14,17,-8,-28,-12,-31
1144,1144,1503599970182,10,50,20,0,2,26,8,-10
1145,1145,1503599970183,-33,-32,-13,-7,-6,-17,0,0
1146,1146,1503599970197,-10,-28,-16,-1,8,18,7,16
1147,1147,1503599970206,-19,16,10,10,6,-1,8,-6
1148,1148,1503599970219,7,-2,-13,-8,-8,-23,-6,-2
1149,1149,1503599970221,14,19,-15,-12,-9,10,3,-5
1150,1150,1503599970234,20,4,5,8,13,13,14,-2
1151,1151,1503599970243,-34,-11,1,-8,-3,-20,-8,-3
1152,1152,1503599970257,-6,-12,-2,-2,-1,30,-3,4
1153,1153,1503599970265,20,51,17,12,2,2,-4,-11
1154,1154,1503599970274,-4,11,4,-4,5,20,2,18
1155,1155,1503599970280,6,-23,-13,6,13,9,2,1
1156,1156,1503599970294,18,34,10,-3,-4,1,6,21
1157,1157,1503599970303,20,-7,1,2,-6,6,7,-1
1158,1158,1503599970314,-44,-20,-10,-9,-4,-29,-7,-12
1159,1159,1503599970326,-7,-28,-1,2,0,-12,-8,-7
1160,1160,1503599970332,13,10,3,-6,-11,-3,2,-5
1161,1161,1503599970343,11,-8,-3,4,12,10,-6,5
1162,1162,1503599970354,-2,9,12,5,0,11,1,8
1163,1163,1503599970355,-18,-7,-8,-3,1,-11,-2,-1
1164,1164,1503599970362,29,6,-5,-3,-3,-6,7,4
1165,1165,1503599970370,-14,7,4,3,-3,-4,2,-11
1166,1166,1503599970385,14,27,-2,-10,-9,6,4,7
1167,1167,1503599970393,-21,-6,-8,6,0,-4,-10,-12
1168,1168,1503599970401,-11,-18,-4,-3,-9,-3,-25,7
1169,1169,1503599970417,2,-8,-7,-8,-25,1,-2,16
1170,1170,1503599970423,-6,-9,-10,-4,4,11,-3,-5
1171,1171,1503599970438,29,-4,1,2,17,2,8,-5
1172,1172,1503599970445,2,29,9,-2,-7,-4,6,3
1173,1173,1503599970454,28,23,-2,0,-1,-15,4,0
1174,1174,1503599970467,-22,-20,3,6,4,3,3,-1
1175,1175,1503599970468,17,-1,-10,-5,1,-9,0,-2
1176,1176,1503599970477,-34,-5,6,-2,-1,2,9,-2
1177,1177,1503599970483,-18,-10,-5,-6,-6,2,-2,15
1178,1178,1503599970497,-16,-13,2,-6,1,9,-1,5
1179,1179,1503599970505,-20,-17,0,3,0,-4,1,-12
1180,1180,1503599970512,0,0,-3,0,-3,-7,-2,-14
1181,1181,1503599970527,-13,-38,-1,2,5,2,-3,-4
1182,1182,1503599970534,17,13,7,3,-2,-5,-15,-3
1183,1183,1503599970545,-7,-15,-2,-1,-8,-2,2,-6
1184,1184,1503599970557,26,1,-6,-3,-2,2,-1,4
1185,1185,1503599970565,-6,-8,-2,1,1,13,3,0
1186,1186,1503599970572,29,-7,-2,5,2,14,-3,-8
1187,1187,1503599970587,-21,-6,-7,2,4,-6,0,-7
1188,1188,1503599970588,-20,11,1,-5,8,1,9,15
1189,1189,1503599970594,21,52,1,-5,1,14,14,4
1190,1190,1503599970602,-16,18,39,15,7,-5,-2,-8
1191,1191,1503599970618,-34,-29,-10,-1,-1,-7,-3,-6
1192,1192,1503599970625,4,-6,-13,-6,-9,-11,-10,3
1193,1193,1503599970633,-15,-14,4,-8,-4,-6,-7,21
1194,1194,1503599970655,-14,-4,-1,4,-4,-8,-9,-4
1195,1195,1503599970656,-22,-11,-14,-11,-13,-24,-11,-8
1196,1196,1503599970670,4,7,-5,0,-3,-12,0,-2
1197,1197,1503599970679,-9,26,22,-1,10,10,-2,-7
1198,1198,1503599970687,1,-1,-5,-4,3,-6,1,-9
1199,1199,1503599970692,33,35,6,6,-4,2,-1,-33
1200,1200,1503599970711,34,16,-1,-3,-3,-5,3,9
1201,1201,1503599970714,-14,-14,-6,5,5,5,0,-3
1202,1202,1503599970722,19,16,-1,12,15,-4,1,-5
1203,1203,1503599970737,13,-14,-9,-5,5,8,-13,7
1204,1204,1503599970745,-21,-31,-5,-2,-9,-15,-7,2
1205,1205,1503599970753,-18,-18,-6,3,8,12,7,-6
1206,1206,1503599970767,-6,-1,-3,-7,-15,-8,0,2
1207,1207,1503599970774,-4,-8,0,1,-2,-4,-4,-1
1208,1208,1503599970782,11,5,-6,-6,-8,-23,-22,-12
1209,1209,1503599970797,-10,34,4,-6,-8,-15,-3,5
1210,1210,1503599970805,-5,19,9,2,5,8,5,5
1211,1211,1503599970812,20,4,2,8,9,0,7,1
1212,1212,1503599970827,4,-7,-2,-2,-3,5,0,-5
1213,1213,1503599970834,-1,-25,11,3,-3,7,15,15
1214,1214,1503599970845,-15,-1,0,7,4,4,-18,-26
1215,1215,1503599970857,-16,-18,-2,4,11,6,10,-12
1216,1216,1503599970872,-50,-15,0,-5,1,-1,7,-1
1217,1217,1503599970873,0,-3,-8,-4,-8,-13,-5,2
1218,1218,1503599970887,12,-6,-6,1,2,11,-3,6
1219,1219,1503599970894,0,-24,-8,4,3,-8,-1,1
1220,1220,1503599970902,7,12,6,3,-1,-8,1,9
1221,1221,1503599970917,-2,6,0,4,-1,0,-3,-1
1222,1222,1503599970925,-4,14,6,0,-1,-8,-4,3
1223,1223,1503599970932,-6,8,-3,-7,-7,7,-3,-1
1224,1224,1503599970948,38,18,-2,-7,-4,-1,-10,2
1225,1225,1503599970955,11,4,2,4,5,-9,-5,4
1226,1226,1503599970963,2,-3,-2,1,-11,-21,6,0
1227,1227,1503599970977,0,-12,-9,-4,9,-6,-2,-2
1228,1228,1503599970985,-1,-3,0,4,-1,10,-2,-3
1229,1229,1503599970992,-4,-2,-1,-8,-16,-5,12,11
1230,1230,1503599971007,-48,-17,-4,-1,3,0,7,-18
1231,1231,1503599971016,-2,-3,3,-8,-4,4,-5,-19
1232,1232,1503599971023,7,-29,-14,-5,1,8,8,2
1233,1233,1503599971037,-5,3,0,1,3,5,-4,-1
1234,1234,1503599971048,0,7,-7,-4,7,20,8,15
1235,1235,1503599971053,17,-4,-2,0,-2,-7,-7,8
1236,1236,1503599971067,7,-4,-3,0,-7,-5,-2,18
1237,1237,1503599971075,7,13,1,2,0,7,7,0
1238,1238,1503599971084,-30,-12,1,-2,4,1,-1,-9
1239,1239,1503599971097,-18,-13,-7,-3,-3,2,-12,-10
1240,1240,1503599971105,6,-8,3,-3,-5,4,7,5
1241,1241,1503599971115,7,-1,3,11,5,6,-4,0
1242,1242,1503599971127,3,1,2,-1,2,-2,1,1
1243,1243,1503599971135,1,4,-3,-2,-3,-17,6,-5
1244,1244,1503599971143,-1,-6,-3,0,-1,-6,-9,-6
1245,1245,1503599971157,-6,-8,-1,-4,4,0,2,-1
1246,1246,1503599971165,17,10,-2,-6,-8,-4,2,-5
1247,1247,1503599971172,-30,1,9,-1,-7,2,-1,6
1248,1248,1503599971188,13,0,-2,0,3,2,14,3
1249,1249,1503599971194,5,9,6,-2,0,6,5,4
1250,1250,1503599971202,-10,4,0,2,1,-13,-5,-2
1251,1251,1503599971218,6,9,0,-2,-4,-7,-4,-6
1252,1252,1503599971225,7,2,-2,6,7,6,-1,-7
1253,1253,1503599971232,1,-11,0,1,0,4,0,0
1254,1254,1503599971249,15,7,3,-1,-6,-10,-6,-13
1255,1255,1503599971255,11,2,-2,-1,-1,-2,-2,3
1256,1256,1503599971263,-1,-12,-6,-1,0,1,2,2
1257,1257,1503599971276,-23,-13,-10,-5,-2,-3,-3,-5
1258,1258,1503599971285,0,-5,-10,-7,-4,3,-4,1
1259,1259,1503599971292,14,13,-3,-1,-1,2,1,3
1260,1260,1503599971307,-17,-8,2,3,6,2,2,-8
1261,1261,1503599971320,6,-12,-10,-3,-9,-2,3,4
1262,1262,1503599971324,10,-8,-4,-3,-7,3,-6,-4
1263,1263,1503599971336,1,-3,6,1,0,4,-3,-20
1264,1264,1503599971345,-18,4,20,4,3,1,2,12
1265,1265,1503599971359,0,7,-1,0,-4,-2,2,6
1266,1266,1503599971367,7,26,-2,-3,-2,-3,-7,-2
1267,1267,1503599971375,-27,-22,0,0,1,-6,3,10
1268,1268,1503599971390,6,11,-10,-2,-3,-5,-4,-4
1269,1269,1503599971397,-10,-4,-1,-3,6,-1,-10,-1
1270,1270,1503599971405,9,19,3,1,-1,-4,-1,2
1271,1271,1503599971419,8,5,3,4,-4,-5,-1,0
1272,1272,1503599971427,-7,-14,-1,-2,-2,0,4,3
1273,1273,1503599971435,9,8,-2,-2,2,1,-3,-1
1274,1274,1503599971450,15,-1,-4,-2,0,-2,1,1
1275,1275,1503599971457,6,-1,0,1,-5,3,7,-3
1276,1276,1503599971465,-13,-24,-2,0,1,6,13,1
1277,1277,1503599971479,-18,-21,-2,1,0,-2,-3,-6
1278,1278,1503599971488,17,25,21,7,5,3,2,4
1279,1279,1503599971501,-35,-20,-5,-6,-3,5,6,0
1280,1280,1503599971502,2,-7,-13,-5,-3,-2,-2,3
1281,1281,1503599971510,-3,2,4,-4,0,1,-13,-12
1282,1282,1503599971517,-5,9,3,0,2,1,-7,-1
1283,1283,1503599971526,-1,1,-5,-2,1,-5,-6,0
1284,1284,1503599971539,2,12,3,-2,1,0,4,0
1285,1285,1503599971550,-3,0,14,3,-1,-1,2,-4
1286,1286,1503599971555,11,2,-4,-2,-4,-1,-6,2
1287,1287,1503599971570,12,9,-6,-3,-3,-3,8,2
1288,1288,1503599971576,-3,7,6,1,4,1,1,-20
1289,1289,1503599971585,-9,-3,-14,-7,-7,-8,-4,7
1290,1290,1503599971599,2,5,1,-2,-6,-23,0,3
1291,1291,1503599971607,-27,-24,-5,-1,1,2,-3,-14
1292,1292,1503599971618,9,-2,-3,-1,-3,5,-1,2
1293,1293,1503599971630,-15,-11,0,3,1,-1,-7,-1
1294,1294,1503599971636,26,43,1,-2,0,1,-6,-6
1295,1295,1503599971645,9,-3,-3,1,-4,3,-5,-7
1296,1296,1503599971659,-7,-4,3,9,0,3,5,10
1297,1297,1503599971668,-6,-3,-4,-4,-2,4,5,9
1298,1298,1503599971675,5,-7,-1,-6,-3,-3,2,2
1299,1299,1503599971691,6,-4,-1,1,2,0,0,-10
1300,1300,1503599971697,-5,10,6,2,2,2,-3,4
1301,1301,1503599971705,-3,-1,5,-1,0,2,1,2
1302,1302,1503599971720,-2,-1,-2,-1,3,1,-2,-7
1303,1303,1503599971727,1,10,-6,-9,-5,-1,1,-1
1304,1304,1503599971735,-2,-1,3,-1,-2,0,-2,1
1305,1305,1503599971751,-23,-23,-18,-4,-2,-2,-3,-7
1306,1306,1503599971756,-22,-29,-4,2,2,-1,-1,2
1307,1307,1503599971765,7,2,-1,0,-2,0,3,-3
1308,1308,1503599971779,-1,-13,-5,-3,-7,-2,0,-6
1309,1309,1503599971787,7,6,9,2,0,-1,-1,6
1310,1310,1503599971795,5,-11,-3,-3,-3,1,-1,-1
1311,1311,1503599971810,3,-4,-2,-1,-1,-2,-3,-5
1312,1312,1503599971819,-6,7,10,-5,-1,1,-3,1
1313,1313,1503599971825,8,2,1,11,7,0,-1,0
1314,1314,1503599971839,17,5,-6,-3,-5,-1,3,5
1315,1315,1503599971847,-23,-1,-4,-6,-4,0,-4,0
1316,1316,1503599971855,12,31,-1,2,2,0,-2,0
1317,1317,1503599971870,-6,-28,-4,-2,-1,0,1,-1
1318,1318,1503599971876,-3,39,29,3,-3,0,0,5
1319,1319,1503599971886,-5,10,-2,-3,-3,-3,-2,-3
1320,1320,1503599971899,-7,-9,-2,10,2,-3,1,-4
1321,1321,1503599971907,15,13,7,0,2,3,3,2
1322,1322,1503599971915,-17,-10,-16,-6,-1,-3,-5,-7
1323,1323,1503599971930,9,-3,-11,-2,-2,0,-4,-1
1324,1324,1503599971936,-1,-11,-12,-2,1,2,-1,-1
1325,1325,1503599971945,16,26,1,-1,2,-1,0,-1
1326,1326,1503599971959,-2,-13,-5,-2,-5,0,0,2
1327,1327,1503599971967,5,-1,-1,-1,-1,-3,-2,-4
1328,1328,1503599971975,-3,-7,-5,-2,-3,-1,-6,-3
1329,1329,1503599971990,-2,0,4,-1,-1,4,-2,3
1330,1330,1503599971996,-3,-2,0,-2,3,-8,0,-4
1331,1331,1503599971997,13,-1,1,-1,-3,-1,0,1
1332,1332,1503599972005,0,-3,10,3,3,-4,9,1
1333,1333,1503599972020,8,-7,-6,2,0,-4,7,4
1334,1334,1503599972028,-35,-13,1,3,0,11,1,-5
1335,1335,1503599972035,2,-20,-14,-7,-2,-2,-5,-2
1336,1336,1503599972050,23,42,-4,-3,-2,1,-1,11
1337,1337,1503599972058,-11,-24,-17,-6,2,4,3,-1
1338,1338,1503599972065,-12,-19,-15,-8,-2,-5,-8,0
1339,1339,1503599972080,2,9,-5,-1,1,-3,-3,1
1340,1340,1503599972087,-2,-23,-2,0,-2,-12,-6,-5
1341,1341,1503599972103,-3,-11,5,-2,0,-2,0,-3
1342,1342,1503599972110,-7,-6,2,2,-3,-4,-2,-6
1343,1343,1503599972124,-23,-13,10,1,-2,-15,-3,1
1344,1344,1503599972125,13,0,1,-2,-4,-11,0,3
1345,1345,1503599972141,2,4,-5,-3,-1,4,4,1
1346,1346,1503599972147,-7,-4,7,5,3,12,2,-3
1347,1347,1503599972163,-20,-8,-2,-3,1,3,-3,-14
1348,1348,1503599972170,14,6,-3,-3,-3,-1,-5,-7
1349,1349,1503599972178,-20,1,7,2,0,8,4,3
1350,1350,1503599972185,-8,-25,-2,0,1,1,3,3
1351,1351,1503599972201,7,10,1,0,-2,1,-2,0
1352,1352,1503599972207,-9,-20,-9,-4,0,3,-1,1
1353,1353,1503599972223,7,13,6,-1,1,1,11,10
1354,1354,1503599972230,5,28,2,0,-1,-3,2,-2
1355,1355,1503599972238,17,15,11,4,-1,-1,1,0
1356,1356,1503599972245,-7,-1,-1,-3,-3,1,-2,-1
1357,1357,1503599972263,12,2,0,-4,-1,2,-1,0
1358,1358,1503599972268,2,1,3,0,-1,-1,-2,5
1359,1359,1503599972283,6,3,7,2,-1,-5,-7,-6
1360,1360,1503599972290,-11,-15,5,9,-1,-2,1,-3
1361,1361,1503599972299,8,-8,-5,-3,1,2,-1,5
1362,1362,1503599972312,-24,-7,-3,-3,0,-1,1,-1
1363,1363,1503599972322,8,7,-1,4,-1,-12,-6,-12
1364,1364,1503599972329,9,15,1,-1,2,16,4,0
1365,1365,1503599972343,4,24,-3,-6,0,-1,2,-1
1366,1366,1503599972350,6,23,3,-2,-1,-6,-2,2
1367,1367,1503599972358,-16,-7,-2,5,-2,2,-5,0
1368,1368,1503599972372,17,25,3,-4,-5,-4,-5,6
1369,1369,1503599972380,1,10,-9,-5,3,33,17,-11
1370,1370,1503599972390,3,5,-1,3,-2,-16,0,0
1371,1371,1503599972403,-15,-16,-5,-3,-2,2,-4,1
1372,1372,1503599972410,-5,-15,-7,-1,1,-2,3,2
1373,1373,1503599972418,9,14,8,0,-1,-6,-1,4
1374,1374,1503599972432,-29,-19,2,0,-2,-5,-6,-6
1375,1375,1503599972440,13,4,0,1,0,-5,-5,-13
1376,1376,1503599972447,-1,-1,3,1,1,0,-2,-1
1377,1377,1503599972463,6,-5,-3,-3,-1,-16,-1,-9
1378,1378,1503599972470,-10,-16,-9,-4,-8,-8,11,-6
1379,1379,1503599972478,-10,-6,0,-3,-3,-1,4,8
1380,1380,1503599972493,1,6,0,1,3,-3,-7,-15
1381,1381,1503599972500,-16,-20,-2,0,-1,0,-6,4
1382,1382,1503599972507,-28,-4,-3,-1,-1,-11,5,-2
1383,1383,1503599972524,5,-4,10,0,-1,-2,-8,5
1384,1384,1503599972530,14,6,3,0,3,12,1,-7
1385,1385,1503599972538,10,5,-2,-1,-3,-3,-3,-9
1386,1386,1503599972552,19,2,0,1,-1,7,3,21
1387,1387,1503599972562,14,-8,-1,0,1,2,-3,-2
1388,1388,1503599972567,-1,-17,-8,-2,5,4,-5,-13
1389,1389,1503599972583,-5,-6,-4,1,2,17,-5,-3
1390,1390,1503599972590,6,-5,-1,0,-3,-21,-16,6
1391,1391,1503599972599,-15,4,0,1,-1,-4,-12,-1
1392,1392,1503599972612,-3,-1,6,1,2,3,0,-11
1393,1393,1503599972620,-14,-18,-9,-2,-4,-9,-5,-10
1394,1394,1503599972628,2,-1,-9,-8,-5,-5,-7,1
1395,1395,1503599972643,28,-10,-12,-2,0,7,7,6
1396,1396,1503599972650,29,6,-6,-3,-4,9,3,-3
1397,1397,1503599972658,11,26,13,3,-1,-12,1,-12
1398,1398,1503599972672,-5,4,-2,3,-3,3,4,5
1399,1399,1503599972680,-13,5,0,-3,-3,-29,-17,13
1400,1400,1503599972687,-2,-8,0,0,5,35,13,13
1401,1401,1503599972703,-46,6,6,2,6,9,-1,-3
1402,1402,1503599972711,14,1,4,-2,-4,-15,8,6
1403,1403,1503599972718,-63,-10,-3,-6,-3,4,6,-16
1404,1404,1503599972733,-20,-2,4,0,-2,-6,10,7
1405,1405,1503599972748,-19,-13,-10,-1,7,16,-5,1
1406,1406,1503599972763,-17,-32,-13,3,14,37,13,-10
1407,1407,1503599972770,17,12,6,0,1,8,-6,0
1408,1408,1503599972778,24,17,6,1,-4,-1,5,13
1409,1409,1503599972792,-12,5,11,1,9,-4,-4,-9
1410,1410,1503599972800,23,0,3,4,-5,-18,2,14
1411,1411,1503599972807,-37,-23,-25,-6,-6,-6,-8,-15
1412,1412,1503599972823,-2,23,-3,-8,-7,-6,-5,6
1413,1413,1503599972830,6,35,11,4,3,6,-3,4
1414,1414,1503599972838,5,3,3,0,-3,-2,4,0
1415,1415,1503599972852,-18,-7,-1,-2,-6,-9,-5,4
1416,1416,1503599972860,3,-16,-7,0,5,-3,7,-10
1417,1417,1503599972868,8,0,-1,-3,-6,-7,-5,2
1418,1418,1503599972883,10,7,2,0,-3,-8,-5,-5
1419,1419,1503599972890,4,-7,0,-1,-3,-6,-1,-5
1420,1420,1503599972898,6,-24,-5,-6,-3,-20,-24,-2
1421,1421,1503599972912,38,16,4,0,1,9,22,4
1422,1422,1503599972920,15,8,-1,0,0,2,-9,-28
1423,1423,1503599972927,14,-10,1,-2,-11,-32,-23,-13
1424,1424,1503599972943,9,9,1,2,-6,11,10,-22
1425,1425,1503599972950,-38,1,-6,-3,1,20,7,5
1426,1426,1503599972960,-6,25,9,1,0,-4,-7,0
1427,1427,1503599972972,-9,-11,-3,-3,-6,-10,1,-3
1428,1428,1503599972980,11,-5,-6,0,3,2,5,18
1429,1429,1503599972987,23,1,1,-3,-1,-2,-11,-19
1430,1430,1503599973003,-3,-26,-6,0,9,34,2,7
1772,1772,1503599976361,8,9,-2,2,0,3,-1,8
1773,1773,1503599976369,10,0,-2,-1,-7,4,4,6
1774,1774,1503599976377,3,-2,2,3,-3,-4,-3,-8
1775,1775,1503599976392,21,27,18,3,3,-12,-11,7
1776,1776,1503599976399,-28,-30,-1,-3,2,4,-12,-6
1777,1777,1503599976407,-26,-16,-2,5,1,-2,-6,-6
1778,1778,1503599976422,6,2,-7,2,1,-8,-5,-3
1779,1779,1503599976430,6,-18,-8,-4,-9,-7,4,2
1780,1780,1503599976437,-3,-16,-5,-3,-4,-11,0,-5
1781,1781,1503599976453,-7,-6,0,-1,6,12,-4,0
1782,1782,1503599976460,-7,22,20,1,0,4,9,-10
1783,1783,1503599976467,-30,-17,-11,-6,-1,3,10,-7
1784,1784,1503599976481,8,10,2,-3,-1,-4,-16,1
1785,1785,1503599976482,-2,17,-1,-1,-2,-3,11,3
1786,1786,1503599976490,-1,-11,2,6,-1,-1,2,6
1787,1787,1503599976491,5,-9,-4,-6,-2,8,-2,-10
1788,1788,1503599976497,-9,3,16,5,4,-1,-9,-2
1789,1789,1503599976512,5,9,-1,2,1,2,4,15
1790,1790,1503599976521,1,-17,-14,-11,-5,1,0,-2
1791,1791,1503599976528,-2,10,10,4,4,4,0,-1
1792,1792,1503599976541,-52,-19,-9,-2,-5,2,3,0
1793,1793,1503599976556,-7,13,0,0,-3,-1,-4,-1
1794,1794,1503599976557,17,-11,-12,-7,-8,-23,-2,10
1795,1795,1503599976572,36,16,16,4,2,0,1,7
1796,1796,1503599976587,14,12,6,4,2,1,-6,-4
1797,1797,1503599976588,11,17,5,8,8,1,-3,-12
1798,1798,1503599976601,6,26,-6,0,1,3,5,7
1799,1799,1503599976610,-20,-25,-12,-5,-1,13,9,4
1800,1800,1503599976619,4,-50,3,2,-2,-8,0,5
1801,1801,1503599976632,-28,-23,-21,-10,-8,-11,-3,-5
1802,1802,1503599976639,-32,-16,-6,-10,-9,-34,-12,16
1803,1803,1503599976647,20,16,2,-4,-5,-1,1,1
1804,1804,1503599976661,52,52,3,9,6,11,-2,-23
1805,1805,1503599976669,9,-28,-17,-9,-1,-1,2,0
1806,1806,1503599976677,13,-11,-11,-7,-7,1,-3,-6
1807,1807,1503599976692,40,2,4,1,-1,2,-5,0
1808,1808,1503599976699,-20,6,9,2,1,1,-5,-4
1809,1809,1503599976707,-30,14,-4,3,-4,-10,3,2
1810,1810,1503599976722,-12,29,-4,-7,-7,-2,-8,8
1811,1811,1503599976729,15,18,2,-3,-1,0,2,3
1812,1812,1503599976737,1,13,0,3,5,7,2,1
1813,1813,1503599976754,-14,-7,-23,-14,-1,4,-9,4
1814,1814,1503599976759,17,-8,0,1,3,8,2,8
1815,1815,1503599976767,-11,-19,-1,-1,-3,1,8,6
1816,1816,1503599976781,14,-1,6,7,0,11,-2,-8
1817,1817,1503599976790,-2,-14,6,1,-1,0,-4,10
1818,1818,1503599976797,-14,-2,1,-2,3,10,-6,-16
1819,1819,1503599976812,-21,-14,-4,-2,1,-2,-3,-3
1820,1820,1503599976819,8,2,-6,-7,-2,-10,3,-10
1821,1821,1503599976827,11,-1,4,0,-3,7,-5,-4
1822,1822,1503599976828,9,21,14,5,3,-3,-3,-16
1823,1823,1503599976841,15,23,17,16,2,10,7,5
1824,1824,1503599976850,-22,8,11,7,3,3,-6,-14
1825,1825,1503599976857,-13,3,-7,-11,-5,-6,-2,-10
1826,1826,1503599976872,4,34,3,6,1,-13,-4,6
1827,1827,1503599976879,9,-12,-4,2,12,12,-8,-9
1828,1828,1503599976887,-19,-17,1,-1,0,-10,-4,-18
1829,1829,1503599976901,31,-15,-1,1,3,11,5,9
1830,1830,1503599976909,-11,-4,6,1,1,-15,-7,-4
1831,1831,1503599976917,-31,-32,-10,-6,-8,-13,0,-1
1832,1832,1503599976932,21,-20,-8,-2,5,5,8,-21
1833,1833,1503599976939,-11,5,22,22,7,2,-12,-1
1834,1834,1503599976955,3,0,-6,-7,0,5,-4,5
1835,1835,1503599976961,35,10,-7,-10,-1,-7,-10,-10
1836,1836,1503599976970,-18,9,9,10,-9,-7,20,6
1837,1837,1503599976984,-17,-5,-5,-6,-5,-11,11,5
1838,1838,1503599976992,55,-4,-9,-12,-6,4,2,-6
1839,1839,1503599976999,-50,-17,12,13,7,4,2,8
1840,1840,1503599977015,-13,-2,4,3,2,1,-1,6
1841,1841,1503599977021,16,3,11,12,10,6,9,-8
1842,1842,1503599977031,18,30,4,1,5,2,3,5
1843,1843,1503599977044,-15,-11,-16,-5,-4,4,4,6
1844,1844,1503599977052,-1,-8,3,4,4,-10,-20,0
1845,1845,1503599977059,20,61,20,-5,-5,-9,-2,-3
1846,1846,1503599977074,16,5,-18,-10,-5,-2,-10,1
1847,1847,1503599977081,34,0,6,4,1,7,13,14
1848,1848,1503599977090,10,13,5,-4,-2,0,1,-4
1849,1849,1503599977104,-7,-2,-10,-8,-4,-21,-11,-28
1850,1850,1503599977112,0,-11,4,10,10,21,8,14
1851,1851,1503599977119,-25,-19,-15,-7,4,1,-24,8
1852,1852,1503599977134,-13,10,18,10,-5,-14,-9,-11
1853,1853,1503599977141,-19,-8,-12,-9,-15,0,12,7
1854,1854,1503599977150,-9,-1,-12,3,-7,-2,-9,-10
1855,1855,1503599977166,7,-8,-2,-1,-1,6,-4,-12
1856,1856,1503599977172,-41,6,13,1,1,13,1,-7
1857,1857,1503599977180,-16,0,-1,-3,-1,1,7,4
1858,1858,1503599977195,19,-26,-9,-2,1,18,-8,19
1859,1859,1503599977202,-14,-2,6,-3,-1,-1,-7,10
1860,1860,1503599977209,50,15,-4,-11,-11,-20,3,3
1861,1861,1503599977228,9,9,1,-5,-5,5,10,7
1862,1862,1503599977232,9,-7,-4,-3,4,1,0,-3
1863,1863,1503599977247,-21,-12,-10,9,4,-2,-3,-22
1864,1864,1503599977256,2,-2,-12,-7,0,22,5,18
1865,1865,1503599977263,20,19,16,7,0,-5,-1,13
1866,1866,1503599977270,-15,-11,-4,1,2,-6,31,5
1867,1867,1503599977285,14,-4,0,-5,-1,8,4,1
1868,1868,1503599977292,-63,-11,7,15,4,-9,-16,-5
1869,1869,1503599977300,-2,-2,4,2,1,-1,-11,-14
1870,1870,1503599977315,-18,16,-1,-4,5,8,-1,-13
1871,1871,1503599977324,11,41,10,4,-2,-10,2,6
1872,1872,1503599977330,15,-7,-5,-6,-4,-21,-18,-23
1873,1873,1503599977352,-23,-32,11,1,2,-1,6,16
1874,1874,1503599977353,9,0,-4,-8,-3,-2,-16,10
1875,1875,1503599977360,-22,-46,-17,2,4,-8,-7,6
1876,1876,1503599977374,-21,-40,-11,-4,-3,13,-13,-13
1877,1877,1503599977382,2,8,-5,1,-10,-24,-2,2
1878,1878,1503599977391,30,5,-9,-4,-15,-37,22,8
1879,1879,1503599977405,-3,-19,-20,-4,7,2,-28,-6
1880,1880,1503599977412,37,10,-2,0,-9,3,2,-9
1881,1881,1503599977428,56,20,-13,-14,-5,-1,2,6
1882,1882,1503599977434,-31,-42,-12,-9,1,11,7,7
1883,1883,1503599977442,5,-11,1,0,-3,5,5,-9
1884,1884,1503599977449,2,21,17,3,-2,-17,-12,9
1885,1885,1503599977465,1,2,-5,-10,-12,-11,-9,-20
1886,1886,1503599977472,-19,15,0,8,6,-1,16,-32
1887,1887,1503599977487,-25,58,10,4,-14,-20,6,-1
1888,1888,1503599977495,16,5,15,-3,-6,7,-13,5
1889,1889,1503599977502,-10,-27,-6,-4,2,-5,6,-5
1890,1890,1503599977509,-13,21,-3,-4,-3,7,-4,16
1891,1891,1503599977526,0,-7,-1,-3,2,7,2,-27
1892,1892,1503599977532,17,0,-1,-3,0,-7,-10,-1
1893,1893,1503599977547,-28,-19,-7,1,2,10,3,9
1894,1894,1503599977554,-12,3,1,2,6,16,13,0
1895,1895,1503599977567,8,2,9,9,12,19,-13,-7
1896,1896,1503599977570,15,41,2,0,2,1,6,9
1897,1897,1503599977585,-46,-24,-10,-10,-4,-3,2,18
1898,1898,1503599977593,-47,-22,-2,-3,-6,-21,7,6
1899,1899,1503599977607,31,20,-2,-5,-2,6,6,17
1900,1900,1503599977614,-21,-19,10,3,-1,3,-4,-13
1901,1901,1503599977623,-2,-15,-12,-3,4,-7,-17,-16
1902,1902,1503599977629,-43,-18,-1,4,5,-8,-14,-18
1903,1903,1503599977645,10,-3,-9,-7,-4,-11,7,-4
1904,1904,1503599977652,-5,8,2,4,2,1,2,-1
1905,1905,1503599977667,15,4,-1,-3,-2,-4,-20,-9
1906,1906,1503599977668,-7,-2,5,3,12,17,8,2
1907,1907,1503599977674,1,-15,0,-1,-6,-10,0,6
1908,1908,1503599977682,-1,-3,7,0,-5,-1,7,0
1909,1909,1503599977690,30,31,-4,4,4,11,-10,-9
1910,1910,1503599977705,-13,0,-6,-2,-2,3,12,-3
1911,1911,1503599977712,19,14,7,-5,-6,-8,9,-7
1912,1912,1503599977729,3,1,10,5,0,-20,13,-11
1913,1913,1503599977735,-19,-24,-7,-6,6,15,0,-3
1914,1914,1503599977743,16,11,3,-3,4,20,0,10
1915,1915,1503599977749,1,-43,-17,-3,0,-9,-13,7
1916,1916,1503599977765,-5,-19,-13,-2,-7,-9,-7,-1
1917,1917,1503599977772,12,-4,4,-6,-5,-8,-6,16
1918,1918,1503599977787,19,17,-2,0,-5,-11,-19,4
1919,1919,1503599977795,-9,0,13,2,-1,16,6,2
1920,1920,1503599977802,-20,-1,5,-4,0,1,-6,17
1921,1921,1503599977809,11,-16,-15,-8,-8,-11,-5,2
1922,1922,1503599977827,-47,-20,-6,-4,-7,-2,-7,-5
1923,1923,1503599977832,52,20,7,15,3,9,8,1
1924,1924,1503599977847,5,28,-3,-4,-10,-5,-3,-17
1925,1925,1503599977854,7,12,6,-2,-2,11,0,-10
1926,1926,1503599977870,15,22,4,3,3,9,17,-5
1927,1927,1503599977877,10,22,-2,-1,3,6,15,17
1928,1928,1503599977895,-7,-5,-7,-5,-4,-15,17,8
1929,1929,1503599977907,5,-7,8,5,0,-7,-16,-4
1930,1930,1503599977914,-16,-9,-12,9,11,0,0,-10
1931,1931,1503599977922,14,-3,1,-1,5,21,7,-1
1932,1932,1503599977937,-8,-4,-9,-8,-3,2,-3,-3
1933,1933,1503599977945,14,-13,-7,3,11,5,-12,-7
1934,1934,1503599977952,15,-10,-3,2,-2,-11,0,-10
1935,1935,1503599977968,6,-13,-1,-4,-6,6,2,-18
1936,1936,1503599977974,-9,-11,-1,1,8,1,-5,6
1937,1937,1503599977975,10,5,-2,-3,-1,-2,-7,-1
1938,1938,1503599977983,-25,8,4,-2,0,-2,4,5
1939,1939,1503599977997,4,-9,-1,-7,0,6,-1,-4
1940,1940,1503599978005,-12,-6,-8,-5,-1,5,-4,-11
1941,1941,1503599978012,-21,-20,4,-1,-4,-5,1,15
1942,1942,1503599978029,3,-16,-12,-9,-7,-9,6,21
1943,1943,1503599978035,35,-7,-3,-2,-2,-4,-12,-9
1944,1944,1503599978043,-3,1,0,-6,-15,-15,2,-1
1945,1945,1503599978057,9,7,-2,-4,-22,-11,1,-4
1946,1946,1503599978066,-2,1,-1,-4,-3,-8,-2,2
1947,1947,1503599978072,-39,15,3,2,-1,-22,-2,-9
1948,1948,1503599978088,15,-3,-4,4,3,0,-5,1
1949,1949,1503599978096,-7,6,-3,-4,9,0,-14,15
1950,1950,1503599978103,4,10,8,5,7,13,1,3
1951,1951,1503599978117,5,2,-2,-8,6,29,-4,-1
1952,1952,1503599978125,9,-5,-5,3,8,22,3,3
1953,1953,1503599978133,7,19,0,0,-3,-1,0,-9
1954,1954,1503599978148,1,13,4,5,9,-6,-5,-5
1955,1955,1503599978155,-13,-21,-7,-8,1,-26,-9,0
1956,1956,1503599978164,-12,5,3,-4,-10,-11,17,4
1957,1957,1503599978177,3,13,10,2,1,8,2,11
1958,1958,1503599978185,2,5,8,2,-1,-23,-22,-20
1959,1959,1503599978192,-23,-7,2,15,16,31,11,-19
1960,1960,1503599978208,-21,4,0,0,0,4,2,-2
1961,1961,1503599978214,-45,-12,-5,-5,-7,-1,5,1
1962,1962,1503599978223,-2,-5,-7,-2,-2,-2,-2,4
1963,1963,1503599978238,11,-15,10,2,-1,8,8,12
1964,1964,1503599978245,3,5,-2,-6,-6,-7,4,17
1965,1965,1503599978252,16,6,-7,-2,-1,17,-4,10
1966,1966,1503599978268,5,2,2,-3,-6,-7,4,0
1967,1967,1503599978275,16,1,4,2,4,-2,-8,-40
1968,1968,1503599978283,1,2,-2,-3,-7,-3,-7,-9
1969,1969,1503599978298,41,3,12,3,-2,10,31,12
1970,1970,1503599978305,27,17,-10,-3,-6,-9,-2,6
1971,1971,1503599978312,20,7,18,4,1,-14,-12,-7
1972,1972,1503599978328,2,-2,-7,-2,2,6,-1,-5
1973,1973,1503599978335,1,21,-2,-4,-6,-1,-3,12
1974,1974,1503599978342,-7,-10,2,6,9,-4,-1,-6
1975,1975,1503599978357,-1,20,-7,-1,-5,-12,-6,-13
1976,1976,1503599978368,40,-3,5,7,9,9,5,-44
1977,1977,1503599978373,-30,-16,-10,-6,-6,-25,-9,0
1978,1978,1503599978388,-20,-1,-2,-3,-3,8,10,3
1979,1979,1503599978394,-13,6,-3,-2,1,3,0,-11
1980,1980,1503599978402,-21,-12,-4,-2,-5,-11,-6,8
1981,1981,1503599978417,1,19,-4,-2,-1,-7,-10,9
1982,1982,1503599978425,-15,-3,0,-11,-5,-7,-10,7
1983,1983,1503599978432,-25,-24,-10,-3,1,8,15,8
1984,1984,1503599978448,9,9,4,-1,-1,-4,1,12
1985,1985,1503599978454,8,2,5,1,-13,-11,-1,-2
1986,1986,1503599978465,20,1,-3,-1,-4,-3,2,2
1987,1987,1503599978477,-4,-13,-2,-3,-4,2,1,20
1988,1988,1503599978485,2,11,-2,4,-3,6,2,7
1989,1989,1503599978492,-8,-18,2,0,4,5,2,0
1990,1990,1503599978508,-27,-11,-3,-6,0,6,-10,-4
1991,1991,1503599978514,-19,-7,-9,-1,0,-20,-15,-14
1992,1992,1503599978522,-35,-10,3,6,5,6,6,-5
1993,1993,1503599978537,-6,-11,-5,-2,4,21,-10,4
1994,1994,1503599978545,12,-1,1,0,11,8,-6,2
1995,1995,1503599978553,6,10,3,4,9,9,9,5
1996,1996,1503599978569,13,19,-2,-2,-3,-2,0,6
1997,1997,1503599978574,25,15,11,1,-1,5,4,-1
1998,1998,1503599978582,-5,15,-4,3,-2,-6,-10,0
1999,1999,1503599978599,2,-8,-11,-1,-6,-7,-10,-11
2000,2000,1503599978605,37,4,-7,-4,-2,2,5,3
2001,2001,1503599978612,-11,10,5,1,0,1,7,1
2002,2002,1503599978613,8,-16,-4,-1,3,1,5,-22
2003,2003,1503599978627,-4,-13,-1,-1,-4,3,-1,1
2004,2004,1503599978635,-19,-2,-2,-5,-3,-6,-4,0
2005,2005,1503599978643,-8,0,4,1,-1,-9,4,-12
2006,2006,1503599978657,-29,15,21,5,-3,-31,34,8
2007,2007,1503599978667,10,-4,-1,0,1,-2,-4,-24
2008,2008,1503599978673,15,6,-5,1,-2,3,-8,9
2009,2009,1503599978687,-16,2,5,-1,-3,-4,-4,6
2010,2010,1503599978694,16,17,0,-2,-2,-1,2,4
2011,2011,1503599978703,-3,-8,-3,1,0,-4,-3,1
2012,2012,1503599978717,0,-14,-3,-1,2,12,-9,5
2013,2013,1503599978725,-13,-31,-11,-5,-2,-4,-3,15
2014,2014,1503599978734,9,-16,-2,-1,2,-6,1,-7
2015,2015,1503599978748,-19,7,4,-1,-3,-2,1,-12
2016,2016,1503599978754,-15,-15,-9,-3,-4,5,-6,-3
2017,2017,1503599978762,-12,16,9,2,-1,-13,-6,20
2018,2018,1503599978763,-16,-22,-5,1,1,8,2,4
2019,2019,1503599978777,-4,17,1,-4,0,-4,-24,1
2020,2020,1503599978785,12,13,5,-3,-2,-16,-6,2
2021,2021,1503599978793,-16,-15,-5,-1,9,12,-3,0
2022,2022,1503599978816,-8,-22,-6,-3,1,3,3,3
2023,2023,1503599978829,18,3,15,2,-1,6,3,3
2024,2024,1503599978838,-23,17,5,0,-6,-8,1,-4
2025,2025,1503599978845,3,-10,-4,-9,-2,-4,-22,-7
2026,2026,1503599978864,-39,-8,-1,-1,-5,-2,-2,-10
2027,2027,1503599978870,2,-13,1,1,2,-2,-2,-3
2028,2028,1503599978871,1,6,-2,-3,0,0,7,6
2029,2029,1503599978875,20,9,2,1,3,9,2,-6
2030,2030,1503599978890,-5,3,-8,-1,-4,-12,9,5
2031,2031,1503599978897,13,10,-5,0,-5,-19,-2,8
2032,2032,1503599978905,7,-3,-1,1,-2,16,-6,-13
2033,2033,1503599978919,20,7,0,-2,1,11,-17,-1
2034,2034,1503599978928,0,7,2,9,0,7,12,5
2035,2035,1503599978935,26,-26,-13,-6,-3,-3,3,-13
2036,2036,1503599978949,14,17,1,-2,-1,9,4,1
2037,2037,1503599978957,-17,5,3,1,-2,-4,1,0
2038,2038,1503599978965,-3,5,1,0,6,14,0,-5
2039,2039,1503599978979,-2,-14,-8,-4,0,0,-2,7
2040,2040,1503599978987,-21,-4,1,-3,-8,-13,-6,3
2041,2041,1503599978994,3,-2,0,2,0,-5,-6,5
2042,2042,1503599979009,-8,-16,-9,-11,5,49,-1,-2
2043,2043,1503599979017,13,33,3,-1,1,2,0,4
2044,2044,1503599979025,2,-6,-4,-1,-2,-4,-4,-6
2045,2045,1503599979041,11,-3,1,0,-1,10,16,-1
2046,2046,1503599979047,-11,-18,-5,-1,-2,-11,-4,-4
2047,2047,1503599979054,-2,7,-4,-3,-6,-6,3,-4
2048,2048,1503599979070,0,-4,4,1,-2,-28,-5,2
2049,2049,1503599979077,3,13,1,-1,-2,-3,6,0
2050,2050,1503599979085,-23,10,-2,1,-1,-9,11,7
2051,2051,1503599979099,4,-10,1,-3,-6,-6,8,4
2052,2052,1503599979107,23,-6,8,3,0,2,4,6
2053,2053,1503599979114,-14,-18,-1,1,9,9,-17,-6
2054,2054,1503599979129,16,-14,-1,-1,-5,-7,-2,2
2055,2055,1503599979144,13,29,7,-1,-2,0,2,10
2056,2056,1503599979146,-10,-9,-5,-2,-3,8,0,-3
2057,2057,1503599979159,-5,-8,-1,-1,0,-12,-25,-3
2058,2058,1503599979170,-9,-11,-7,-3,0,-8,-9,-10
2059,2059,1503599979174,4,4,3,3,0,-2,6,-4
2060,2060,1503599979189,11,44,3,9,0,-5,-7,1
2061,2061,1503599979197,-15,-6,-11,-2,-2,-1,3,-3
2062,2062,1503599979205,1,-1,-3,-7,1,13,2,3
2063,2063,1503599979219,-6,-10,2,2,-4,-8,4,-12
2064,2064,1503599979227,11,11,-2,0,-2,-14,-6,-6
2065,2065,1503599979228,-6,0,4,-1,6,10,0,2
2066,2066,1503599979235,0,-8,-2,-3,-1,13,0,1
2067,2067,1503599979250,3,3,5,1,-7,-7,7,-1
2068,2068,1503599979257,-9,-3,-4,0,0,-3,5,7
2069,2069,1503599979265,-18,8,-11,-10,-4,-38,-8,-5
2070,2070,1503599979279,-21,-9,-6,-2,-2,-4,-2,-2
2071,2071,1503599979287,14,-17,-8,-1,1,10,4,-1
2072,2072,1503599979294,8,22,5,0,0,-5,2,-5
2073,2073,1503599979309,-4,-7,-5,2,1,5,2,-14
2074,2074,1503599979310,2,4,2,0,2,3,1,2
2075,2075,1503599979317,9,-16,3,2,6,5,-24,-9
2076,2076,1503599979325,-9,-12,1,0,-2,-25,-8,-3
2077,2077,1503599979340,-2,-8,4,1,-1,-2,-3,1
2078,2078,1503599979347,-7,4,-1,-2,-1,-6,-13,1
2079,2079,1503599979348,5,7,5,4,-1,2,11,6
2080,2080,1503599979354,11,-5,-6,-3,1,-4,5,5
2081,2081,1503599979371,-24,-9,-1,-2,2,14,3,-5
2082,2082,1503599979377,-15,-1,-3,-1,-2,-4,1,4
2083,2083,1503599979385,7,9,-9,-2,-2,0,0,4
2084,2084,1503599979400,6,18,7,0,-3,-12,-13,0
2085,2085,1503599979408,7,18,11,1,0,-3,-9,-15
2086,2086,1503599979415,4,-1,0,0,-1,12,-1,2
2087,2087,1503599979429,0,-7,-4,-6,0,3,-5,2
2088,2088,1503599979438,8,20,8,5,-1,-7,-12,-2
2089,2089,1503599979439,-12,-12,-2,-4,-2,-3,5,-4
2090,2090,1503599979445,-7,0,-4,-2,2,0,4,-6
2091,2091,1503599979459,10,33,0,3,-2,6,10,2
2092,2092,1503599979467,0,4,4,-2,2,8,-3,-2
2093,2093,1503599979475,10,22,12,3,-3,3,-13,-14
2094,2094,1503599979489,-10,-8,-4,1,-1,25,0,-3
2095,2095,1503599979497,-3,-11,-1,-5,0,-14,6,-6
2096,2096,1503599979507,10,8,-3,8,-3,-8,5,-3
2097,2097,1503599979520,-12,-18,-11,-3,0,-7,5,-1
2098,2098,1503599979527,-4,20,6,-2,-3,-9,0,0
2099,2099,1503599979534,25,8,-2,2,-2,-4,-2,0
2100,2100,1503599979549,12,-19,-1,1,0,-1,4,-16
2101,2101,1503599979557,-4,-8,0,-5,0,8,7,8
2102,2102,1503599979565,-9,-4,2,0,-2,-19,-1,5
2103,2103,1503599979580,-26,-13,-9,-2,2,30,2,-5
2104,2104,1503599979588,-7,2,5,8,0,-12,-8,3
2105,2105,1503599979595,2,0,-4,-2,-3,-6,1,5
2106,2106,1503599979612,3,11,14,3,2,-4,-16,4
2107,2107,1503599979617,14,11,7,5,1,4,-2,-26
2108,2108,1503599979633,14,19,3,-3,-5,-11,-20,1
2109,2109,1503599979642,-13,2,0,0,0,-10,-6,2
2110,2110,1503599979649,-10,-15,-7,-4,0,9,2,-2
2111,2111,1503599979655,-9,8,7,-1,-2,-11,3,-1
2112,2112,1503599979670,2,4,-4,5,-3,-1,8,2
2113,2113,1503599979679,1,-23,-7,-4,-1,-7,-1,8
2114,2114,1503599979685,4,-18,-6,-6,-1,8,3,-10
2115,2115,1503599979699,-21,4,4,4,-1,9,7,-3
2116,2116,1503599979707,-3,-6,-2,-3,2,2,-11,0
2117,2117,1503599979715,10,-5,-8,-5,-4,-3,2,6
2118,2118,1503599979729,0,-6,-9,-4,-6,-5,4,7
2119,2119,1503599979737,-14,-27,-4,0,2,3,14,-7
2120,2120,1503599979752,2,-17,-9,-2,-3,5,2,4
2121,2121,1503599979759,12,-8,2,-1,0,0,0,11
2122,2122,1503599979767,-3,5,7,-3,-4,-6,4,11
2123,2123,1503599979782,-4,3,-1,0,-2,-5,-6,0
2124,2124,1503599979789,14,7,0,-3,0,7,6,7
2125,2125,1503599979797,-6,-8,-4,0,2,-8,-7,-4
2126,2126,1503599979812,-11,1,-4,-2,0,-4,-9,-6
2127,2127,1503599979819,15,-8,-2,2,2,-9,-8,2
2128,2128,1503599979828,11,6,-2,4,-2,-2,5,1
2129,2129,1503599979841,-2,-8,-3,-2,1,-6,-7,-2
2130,2130,1503599979842,13,15,0,0,-3,4,7,12
2131,2131,1503599979850,-6,26,0,-3,-1,-4,-2,1
2132,2132,1503599979857,-3,11,2,-4,3,7,0,-2
2133,2133,1503599979872,3,-9,2,-1,1,-4,-4,-5
2134,2134,1503599979879,-17,5,3,-1,-2,0,-2,-5
2135,2135,1503599979887,0,-6,1,2,1,2,1,1
2136,2136,1503599979901,1,9,-2,-9,-2,-8,-3,0
2137,2137,1503599979913,-7,-13,-5,-4,-2,7,11,2
2138,2138,1503599979917,33,21,-8,-2,-5,-12,-8,-12
2139,2139,1503599979932,-4,-19,-9,-5,0,33,7,-8
2140,2140,1503599979941,14,-8,0,3,-1,5,1,-10
2141,2141,1503599979947,-24,-16,-4,2,-7,-14,-4,-5
2142,2142,1503599979961,-20,5,7,0,3,11,7,3
2143,2143,1503599979969,-2,-5,4,0,3,-5,-2,1
2144,2144,1503599979977,9,2,6,4,-2,-7,-15,3
2145,2145,1503599979992,7,20,-2,0,0,4,3,2
2146,2146,1503599979999,-13,-13,-4,0,-2,-2,5,2
2147,2147,1503599980009,5,-6,0,-2,1,6,-15,-3
2148,2148,1503599980021,-17,-1,-5,-2,-2,-3,-4,-2
2149,2149,1503599980029,8,8,-2,1,-3,-11,3,-1
2150,2150,1503599980037,-4,-7,-6,1,2,3,1,2
2151,2151,1503599980052,-7,-5,-3,-5,-1,-14,-3,0
2152,2152,1503599980059,3,0,-8,-6,-3,-4,-2,-1
2153,2153,1503599980067,3,-8,-1,-1,0,-3,-19,-4
2154,2154,1503599980081,-13,-9,-4,-1,-3,-2,-3,2
2155,2155,1503599980089,10,-8,-2,0,0,2,9,3
2156,2156,1503599980097,22,-18,0,2,1,9,-1,-5
2157,2157,1503599980112,-5,6,4,2,0,3,0,-2
2158,2158,1503599980119,10,3,-1,-2,1,4,7,0
2159,2159,1503599980127,-2,-8,0,7,-1,-6,-2,1
2160,2160,1503599980143,5,11,11,2,2,1,-1,1
2161,2161,1503599980149,-11,21,1,-5,0,3,6,-2
2162,2162,1503599980157,-15,-7,-2,1,3,-3,2,2
2163,2163,1503599980172,-5,-9,-3,-3,0,-13,8,0
2164,2164,1503599980180,8,-8,0,-1,-6,-14,-2,1
2165,2165,1503599980187,19,-15,-6,-4,-6,-14,13,2
2166,2166,1503599980201,19,13,-1,1,0,0,-4,1
2167,2167,1503599980210,-4,-10,-5,3,-2,3,-8,-8
2168,2168,1503599980217,-5,4,-3,-3,-4,12,6,1
2169,2169,1503599980232,-6,-1,1,-3,2,4,-5,-4
2170,2170,1503599980239,-19,7,-1,-3,-1,3,3,1
2171,2171,1503599980247,23,8,-5,-1,-1,-3,1,4
2172,2172,1503599980248,0,0,4,0,-3,1,-5,0
2173,2173,1503599980261,2,5,1,1,0,0,-5,-6
2174,2174,1503599980269,6,20,6,2,2,0,-10,-2
2175,2175,1503599980278,-9,3,-3,-2,-8,-5,1,-3
2176,2176,1503599980292,2,5,1,0,0,2,4,4
2177,2177,1503599980299,-4,-12,4,8,3,-4,-4,-2
2178,2178,1503599980307,-2,-2,-7,-4,-3,-19,1,1
2179,2179,1503599980321,12,0,-2,-2,-2,-1,-3,-5
2180,2180,1503599980329,-6,-6,-2,3,0,0,1,4
2181,2181,1503599980337,1,3,-3,-3,0,4,-4,-2
2182,2182,1503599980352,-12,-1,11,0,-2,-7,-5,-4
2183,2183,1503599980359,-15,-9,-3,-1,0,2,0,-4
2184,2184,1503599980367,-9,1,-8,-3,-1,6,16,-1
2185,2185,1503599980381,-1,4,1,0,1,0,6,1
2186,2186,1503599980389,-6,-6,-4,0,-2,3,0,1
2187,2187,1503599980397,-4,-2,-4,-3,0,-1,-4,-13
2188,2188,1503599980412,34,10,-3,-5,0,13,9,1
2189,2189,1503599980426,7,-10,-5,-3,-2,3,2,0
2190,2190,1503599980428,-19,-27,4,3,-1,-2,-5,2
2191,2191,1503599980441,-4,-3,0,-5,1,25,5,3
2192,2192,1503599980450,9,1,-1,7,1,7,-2,3
2193,2193,1503599980457,14,11,-1,-2,-1,-10,-10,2
2194,2194,1503599980472,5,6,-1,-4,-3,-6,-20,-4
2195,2195,1503599980479,-9,-6,0,3,-3,-6,-4,-1
2196,2196,1503599980487,-27,22,9,1,3,-6,-2,2
2197,2197,1503599980501,-4,-10,-4,-4,-2,9,4,1
2198,2198,1503599980509,-4,-7,-1,-2,1,8,4,-2
2199,2199,1503599980517,-8,4,2,-5,1,3,-3,-4
2200,2200,1503599980532,16,-3,0,-2,-1,-1,-2,0
2201,2201,1503599980539,0,1,1,2,-3,-9,-3,-2
2202,2202,1503599980547,-2,-16,-4,-4,-5,6,16,-3
2203,2203,1503599980561,-42,-16,3,2,-3,-18,-12,-7
2204,2204,1503599980569,5,21,-4,-1,-1,-2,0,-23
2205,2205,1503599980584,11,4,4,1,0,7,9,9
2206,2206,1503599980592,6,24,1,-1,-1,-1,-5,7
2207,2207,1503599980599,-7,-8,-8,-1,0,-23,-5,-3
2208,2208,1503599980607,2,5,-1,2,-1,2,-5,3
2209,2209,1503599980621,17,5,1,3,-1,-10,2,4
2210,2210,1503599980629,8,-8,-3,-5,-3,1,3,2
2211,2211,1503599980644,2,-7,7,0,-1,-1,0,1
2212,2212,1503599980653,-28,-1,0,-1,1,-1,-9,-8
2213,2213,1503599980660,5,0,-7,-1,-1,-8,-1,-1
2214,2214,1503599980674,-6,6,-4,-4,-4,2,11,8
2215,2215,1503599980681,13,-1,-1,-4,-1,4,-1,1
2216,2216,1503599980690,31,-9,-2,-1,0,-1,-3,0
2217,2217,1503599980703,1,1,0,-1,0,-1,-14,-1
2218,2218,1503599980713,-2,-10,-6,-3,-2,-10,-5,-1
2219,2219,1503599980719,-15,-11,-7,-1,2,3,5,3
2220,2220,1503599980734,0,1,4,0,0,-3,-2,-2
2221,2221,1503599980741,-5,-4,-8,-3,-3,-5,0,8
2222,2222,1503599980750,-8,-5,-4,-3,1,1,2,2
2223,2223,1503599980764,18,14,4,-5,-3,3,-4,3
2224,2224,1503599980772,6,6,2,-1,-1,-3,1,-1
2225,2225,1503599980780,-3,27,2,-1,-1,8,4,-10
2226,2226,1503599980794,-4,-16,-4,2,1,-4,-7,-1
2227,2227,1503599980801,-5,-17,0,3,1,-1,-1,-2
2228,2228,1503599980809,-8,6,-2,1,-3,0,1,0
2229,2229,1503599980824,7,-3,2,3,2,4,-2,-8
2230,2230,1503599980832,-10,-7,-2,5,0,-3,-4,-1
2231,2231,1503599980839,-7,17,-4,0,-1,0,4,6
2232,2232,1503599980854,8,-10,-7,-5,-1,4,2,2
2233,2233,1503599980861,-4,5,-1,-2,0,9,7,-2
2234,2234,1503599980869,-3,-10,7,0,2,18,-8,2
2235,2235,1503599980884,24,28,6,1,3,2,-2,-1
2236,2236,1503599980899,7,0,-2,1,0,10,5,-3
2237,2237,1503599980900,4,-3,-1,-1,-2,-7,-6,-12
2238,2238,1503599980915,-7,-14,-4,-1,-2,-4,-3,-2
2239,2239,1503599980921,9,-5,3,2,0,-2,7,2
2240,2240,1503599980929,0,19,0,1,-1,-8,-1,-4
2241,2241,1503599980944,2,-1,3,3,0,-4,-5,2
2242,2242,1503599980952,2,0,-4,-4,-2,-2,0,3
2243,2243,1503599980959,-9,2,-7,-4,-1,8,5,6
2244,2244,1503599980974,-8,-7,-3,0,3,0,3,-4
2245,2245,1503599980982,-52,7,7,-3,0,4,1,-17
2246,2246,1503599980989,-11,3,-8,-4,1,6,3,4
2247,2247,1503599981003,9,-9,-1,8,0,2,-2,1
2248,2248,1503599981012,7,31,11,2,0,-10,-4,4
2249,2249,1503599981019,-8,-9,-2,-4,-3,0,-2,1
2250,2250,1503599981034,0,-22,-2,-1,-3,-12,1,3
2251,2251,1503599981041,-15,7,-2,-2,0,-5,7,2
2252,2252,1503599981050,-2,6,1,-3,-5,-2,12,2
2253,2253,1503599981064,-13,-21,-7,-1,1,8,-4,-7
2254,2254,1503599981072,-2,2,-6,-10,-1,-3,-8,-17
2255,2255,1503599981079,16,-26,-5,-4,-5,-1,-2,1
2256,2256,1503599981094,-1,-1,7,3,1,3,6,0
2257,2257,1503599981101,-4,-9,9,0,1,-3,-3,7
2258,2258,1503599981110,3,-2,3,1,-1,-5,-4,-1
2259,2259,1503599981125,17,7,2,4,0,-7,-3,5
2260,2260,1503599981132,3,24,9,2,0,-2,-11,-3
2261,2261,1503599981139,-11,24,2,0,-3,-10,-1,-7
2262,2262,1503599981155,-13,-24,-12,-1,0,-1,-7,1
2263,2263,1503599981161,4,29,2,6,2,-1,-6,-8
2264,2264,1503599981169,1,-4,1,-1,-1,-3,-1,-3
2265,2265,1503599981184,6,-21,-1,-4,-3,1,2,0
2266,2266,1503599981193,-1,1,5,1,-5,1,-3,1
2267,2267,1503599981200,6,19,1,-2,1,-7,-2,4
2268,2268,1503599981214,13,-5,-11,-2,0,7,3,-7
2269,2269,1503599981222,4,-17,-3,-1,0,5,8,0
2270,2270,1503599981229,18,6,3,-1,-1,2,1,-2
2271,2271,1503599981244,12,-7,-7,-7,-1,25,7,4
2272,2272,1503599981252,-17,-18,-7,-2,0,-6,-6,1
2273,2273,1503599981259,24,9,3,3,-1,-3,0,-2
2274,2274,1503599981260,-8,1,-5,-4,-3,-9,-8,-2
2275,2275,1503599981274,-6,-4,1,1,0,0,1,0
2276,2276,1503599981281,2,19,-9,-4,-9,-6,2,1
2277,2277,1503599981289,2,-7,4,2,2,-2,1,1
2278,2278,1503599981303,-7,-17,-1,-1,1,-9,3,-2
2279,2279,1503599981312,0,-15,1,-1,3,5,1,5
2280,2280,1503599981319,13,-7,4,3,1,-3,-4,0
2281,2281,1503599981334,-4,2,3,1,0,-1,-1,-4
2282,2282,1503599981341,-21,-19,-2,1,1,-2,-3,-1
2283,2283,1503599981352,5,4,-3,-2,-1,-1,-3,-1
2284,2284,1503599981364,-13,-6,-1,-3,0,0,-6,-9
2285,2285,1503599981372,-10,5,-2,0,-3,-9,3,6
2286,2286,1503599981379,0,-15,-6,-2,-1,6,19,9
2287,2287,1503599981394,10,-1,-3,-1,-2,-3,0,0
2288,2288,1503599981401,12,-9,-6,-8,-1,-2,-7,-6
2289,2289,1503599981409,-13,3,-2,-3,-2,2,2,-1
2290,2290,1503599981427,5,18,11,1,1,-3,-2,1
2291,2291,1503599981432,-9,-6,-1,2,1,6,-5,-1
2292,2292,1503599981439,-5,-4,-2,-3,-2,-19,-6,0
2293,2293,1503599981455,18,18,7,2,-1,-2,-6,-1
2294,2294,1503599981461,3,-3,-3,2,0,3,-6,0
2295,2295,1503599981469,-4,2,-5,-2,-2,-2,7,-3
2296,2296,1503599981487,-10,12,-2,1,0,1,-17,-4
2297,2297,1503599981492,-2,-10,-6,0,1,-7,-1,-1
2298,2298,1503599981500,-3,-12,-1,1,-1,0,0,1
2299,2299,1503599981514,-15,5,0,-3,0,-7,0,-2
2300,2300,1503599981522,-5,8,2,1,0,2,1,-2
2301,2301,1503599981530,1,12,0,0,-1,-3,-1,-4
2302,2302,1503599981544,13,5,-2,0,1,9,14,4
2303,2303,1503599981553,-11,-6,-8,-4,-3,2,0,4
2304,2304,1503599981559,5,2,-4,-3,-1,-1,-2,3
2305,2305,1503599981574,-2,8,2,2,2,-1,-2,1
2306,2306,1503599981581,-12,-32,-4,-1,-2,2,-2,-5
2307,2307,1503599981591,9,-23,-4,1,-2,1,8,-3
2308,2308,1503599981604,9,15,1,1,-1,0,3,5
2309,2309,1503599981612,16,3,2,-1,-1,0,0,-1
2310,2310,1503599981626,-9,17,9,1,1,-7,-6,-2
2311,2311,1503599981634,15,-7,-4,-1,0,-1,-3,-11
2312,2312,1503599981641,2,15,0,7,-1,-4,-11,-6
2313,2313,1503599981657,-14,-17,-1,-3,-3,-2,-7,1
2314,2314,1503599981664,-17,-18,-3,-2,0,4,6,-4
2315,2315,1503599981672,-2,-1,-3,-1,2,3,1,0
2316,2316,1503599981688,13,2,-3,-1,-2,2,1,4
2317,2317,1503599981694,-6,25,7,0,-3,-7,-27,-9
2318,2318,1503599981709,2,13,1,-2,-1,-5,2,0
2319,2319,1503599981717,-16,-16,3,-1,1,4,5,-1
2320,2320,1503599981732,-25,-6,-8,0,0,-2,-3,-5
2321,2321,1503599981734,21,-4,2,-1,0,-1,4,-2
2322,2322,1503599981746,-9,-20,-5,-2,0,-6,-4,1
2323,2323,1503599981755,8,4,1,-4,-2,15,5,-5
2324,2324,1503599981756,-6,2,-2,0,-3,-4,-1,4
2325,2325,1503599981762,-18,0,5,0,3,-1,-4,-1
2326,2326,1503599981763,8,-18,-3,-1,-4,10,-2,-4
2327,2327,1503599981778,1,6,-3,-1,-1,2,5,6
2328,2328,1503599981784,1,8,-1,-3,-1,-2,-2,2
2329,2329,1503599981792,13,9,-3,-2,-5,-1,5,2
2330,2330,1503599981806,-10,-17,-5,-5,-2,-7,-14,-1
2331,2331,1503599981814,-4,2,9,1,1,4,7,4
2332,2332,1503599981822,11,13,2,0,2,2,9,5
2333,2333,1503599981837,-3,-4,-5,0,3,7,0,-7
2334,2334,1503599981844,-18,12,9,3,-3,4,5,-7
2335,2335,1503599981852,5,11,-2,1,0,-1,-3,-8
2336,2336,1503599981866,5,0,0,-1,2,5,-3,-4
2337,2337,1503599981874,4,-31,-6,-1,-1,-1,-1,4
2338,2338,1503599981882,6,3,-3,-1,0,-5,-2,2
2339,2339,1503599981898,-15,-8,-4,-2,1,3,12,0
2340,2340,1503599981903,-1,3,-5,-1,0,-5,1,4
2341,2341,1503599981912,-7,11,-4,-1,-2,-8,-6,-2
2342,2342,1503599981926,-12,-2,-1,-3,0,-3,2,-3
2343,2343,1503599981934,-3,-15,1,0,-1,3,-10,0
2344,2344,1503599981942,-15,-15,0,1,-2,-3,-1,4
2345,2345,1503599981957,-4,39,5,0,-3,0,-2,0
2346,2346,1503599981964,12,11,1,-5,3,9,2,0
2347,2347,1503599981972,7,-14,1,-3,-2,-1,-3,6
2348,2348,1503599981986,3,-6,-5,-2,-2,-3,-1,-4
2349,2349,1503599981994,2,-15,-2,2,-1,-5,-9,-2
2350,2350,1503599982002,9,0,0,1,-1,0,-3,0
2351,2351,1503599982017,-19,-10,2,-1,-1,-5,2,3
2352,2352,1503599982024,-33,-6,-3,0,-2,0,4,-4
2353,2353,1503599982032,6,17,-6,-1,0,0,1,0
2354,2354,1503599982046,2,19,5,-1,3,0,1,-9
2355,2355,1503599982056,1,-9,-6,0,-1,3,-4,0
2356,2356,1503599982062,7,-17,-1,0,-5,16,3,0
2357,2357,1503599982077,3,1,-6,-4,-2,-4,1,-2
2358,2358,1503599982083,-15,-20,-7,-2,2,-3,-7,-4
2359,2359,1503599982092,6,-4,-5,0,-2,-3,-2,-3
2360,2360,1503599982106,25,6,0,2,-1,-4,-3,-2
2361,2361,1503599982114,-19,-12,-2,0,0,-6,-1,-2
2362,2362,1503599982123,0,-11,-1,-2,-2,-19,-17,-1
2363,2363,1503599982137,5,1,2,-6,-3,7,-1,-3
2364,2364,1503599982144,5,-2,-5,-2,-3,-4,7,1
2365,2365,1503599982152,-12,0,4,0,0,-1,-3,-13
2366,2366,1503599982166,-6,-3,-5,-3,-4,-4,2,3
2367,2367,1503599982174,11,5,5,1,2,3,1,6
2368,2368,1503599982182,2,-3,-3,-2,-1,4,3,-1
2369,2369,1503599982197,2,0,-2,0,1,-3,2,-1
2370,2370,1503599982204,8,-1,0,-3,0,-6,0,6
2371,2371,1503599982212,5,0,-4,-4,-2,-8,7,0
2372,2372,1503599982226,9,12,-1,-2,-3,-3,-1,-3
2373,2373,1503599982238,0,8,2,3,-6,0,0,-1
2374,2374,1503599982242,15,4,3,3,-2,-1,-5,-2
2375,2375,1503599982263,5,-1,0,-1,1,-1,2,4
2376,2376,1503599982265,-16,8,-1,-3,0,6,-7,-10
2377,2377,1503599982272,-4,-8,-3,-1,1,4,-2,1
2378,2378,1503599982287,-10,-7,3,3,4,0,0,2
2379,2379,1503599982294,-3,11,1,-8,-3,-7,-3,4
2380,2380,1503599982310,11,-14,-6,-2,-3,8,3,2
2381,2381,1503599982317,5,1,3,3,0,-3,0,-11
2382,2382,1503599982326,-14,3,4,-1,2,-6,4,2
2383,2383,1503599982332,-11,1,3,2,-1,1,2,-1
2384,2384,1503599982347,25,-11,-2,3,-1,-7,-11,-2
2385,2385,1503599982354,-2,-12,-6,-1,0,5,-3,8
2386,2386,1503599982370,8,17,3,-8,-1,7,-1,-1
2387,2387,1503599982377,4,3,-2,-1,-1,-3,2,-1
2388,2388,1503599982385,-7,3,-4,-4,0,4,12,-1
2389,2389,1503599982392,-4,17,0,0,0,1,1,-2
2390,2390,1503599982407,-1,14,3,2,-1,-6,-17,1
2391,2391,1503599982414,14,-5,-1,2,2,3,-3,-15
2392,2392,1503599982430,3,-7,-4,1,-2,-2,-1,0
2393,2393,1503599982437,2,20,2,-3,2,1,-4,6
2394,2394,1503599982445,-15,2,2,4,1,-1,-2,-5
2395,2395,1503599982452,1,-18,-14,-4,-2,8,-1,1
2396,2396,1503599982468,3,-1,-4,-2,-1,-2,5,3
2397,2397,1503599982474,6,-4,1,0,0,2,-1,-2
2398,2398,1503599982490,-3,-4,-5,-1,-3,-14,4,-2
2399,2399,1503599982497,-29,1,-1,-3,1,-5,-1,-3
2400,2400,1503599982505,10,-15,-7,-3,-1,2,8,-1
2401,2401,1503599982512,-5,-22,5,7,0,0,-2,5
2402,2402,1503599982528,-6,27,6,0,-2,-1,-1,-1
2403,2403,1503599982535,7,6,-6,-6,-5,-8,-1,0
2404,2404,1503599982550,0,-3,-3,-1,-2,2,-3,-5
2405,2405,1503599982557,-1,4,0,1,1,-3,-1,-3
2406,2406,1503599982565,-16,4,1,-1,-3,-6,-1,-6
2407,2407,1503599982579,-13,2,4,-1,-2,5,7,-2
2408,2408,1503599982587,3,15,6,1,2,19,6,0
2409,2409,1503599982596,-14,11,1,-3,-1,0,-2,-1
2410,2410,1503599982610,24,18,10,-6,0,-4,-7,3
2411,2411,1503599982617,-25,-16,-4,-3,-4,1,3,6
2412,2412,1503599982627,-13,-13,3,2,1,-3,-5,4
2413,2413,1503599982639,3,9,1,1,2,-5,-6,0
2414,2414,1503599982648,-2,-9,-6,1,-2,-5,1,-4
2415,2415,1503599982654,25,-5,-1,-1,2,3,7,-1
2416,2416,1503599982671,12,-1,0,1,0,-2,-1,4
2417,2417,1503599982677,10,-2,-4,-1,-2,13,5,3
2418,2418,1503599982685,-3,-30,-9,-7,1,1,2,-6
2419,2419,1503599982700,-3,2,4,2,-3,-9,-8,-11
2420,2420,1503599982707,7,3,0,0,-5,-1,-3,4
2421,2421,1503599982714,6,-5,-4,-4,-1,-11,-7,5
2422,2422,1503599982730,-1,10,5,2,2,-5,-4,-4
2423,2423,1503599982737,2,31,4,0,1,-7,-4,2
2424,2424,1503599982745,-11,-10,-3,-2,0,-1,2,-5
2425,2425,1503599982746,-8,-17,-5,0,-3,0,-2,-2
2426,2426,1503599982761,-1,15,5,-3,2,7,6,3
2427,2427,1503599982762,-4,-3,-5,0,-3,-13,-13,-5
2428,2428,1503599982767,-8,19,19,4,-1,-4,3,-3
2429,2429,1503599982774,4,-23,-9,0,-2,1,2,-2
2430,2430,1503599982790,7,-7,-5,0,0,4,-17,1
2431,2431,1503599982798,12,-1,4,2,1,1,-2,2
2432,2432,1503599982806,-3,-3,-3,-1,-1,-2,2,-2
2433,2433,1503599982819,-2,-5,-4,1,-1,-1,-1,-1
2434,2434,1503599982829,-17,-5,-3,-3,-1,-2,-3,0
2435,2435,1503599982834,2,4,-5,-4,-1,-1,1,-8
2436,2436,1503599982850,-12,-12,0,-2,-3,-8,0,-2
2437,2437,1503599982857,-12,-15,-6,-4,-2,5,-2,2
2438,2438,1503599982870,-3,-14,-4,1,4,5,2,-3
2439,2439,1503599982879,7,7,-1,-4,-3,-4,3,-6
2440,2440,1503599982887,-2,5,-1,1,0,2,8,-1
2441,2441,1503599982900,-2,-6,0,1,1,3,-4,2
2442,2442,1503599982910,0,3,10,2,-1,0,-3,0
2443,2443,1503599982917,-7,16,9,2,0,11,9,-10
2444,2444,1503599982925,-26,-8,-9,-5,-2,-1,0,0
2445,2445,1503599982939,-2,-12,-3,-1,-1,-6,-3,2
2446,2446,1503599982948,11,25,0,1,-1,0,0,-2
2447,2447,1503599982954,-6,-11,1,2,-1,-11,-2,6
2448,2448,1503599982970,12,-11,-3,0,-3,-3,-1,2
2449,2449,1503599982977,0,-1,-4,-4,-1,4,-9,3
2450,2450,1503599982992,12,0,-6,-1,-2,0,-3,-1
2451,2451,1503599983000,13,9,-2,-1,3,9,8,1
2452,2452,1503599983015,3,4,-1,-1,-2,-2,-4,0
2453,2453,1503599983031,-6,-13,1,4,0,-1,0,0
2454,2454,1503599983037,-9,3,0,0,1,4,5,-2
2455,2455,1503599983045,10,19,-3,-3,-6,-10,-1,3
2456,2456,1503599983059,-5,2,5,3,2,1,-3,0
2457,2457,1503599983067,-16,-20,-7,-2,2,3,2,-2
2458,2458,1503599983074,-2,-3,-3,-4,-4,0,11,1
2459,2459,1503599983100,17,3,2,0,-2,4,8,3
2460,2460,1503599983105,-9,-7,-4,-5,-6,2,-2,-2
2461,2461,1503599983119,4,9,8,3,1,-8,-8,-6
2462,2462,1503599983127,13,30,8,1,1,0,2,6
2463,2463,1503599983134,-7,-13,-7,-3,-6,1,-2,-11
2464,2464,1503599983150,-5,-20,-5,-2,-1,6,5,-2
2465,2465,1503599983157,-3,16,3,3,3,3,-7,-7
2466,2466,1503599983166,-11,-6,-1,-1,1,-15,-5,-3
2467,2467,1503599983179,-15,-15,-9,-4,-3,-8,-8,4
2468,2468,1503599983187,-1,-18,7,-3,1,4,-1,2
2469,2469,1503599983194,11,12,-2,-5,0,-1,-2,4
2470,2470,1503599983210,5,-5,-2,-1,-2,-7,-4,2
2471,2471,1503599983216,-4,-5,-4,-1,-2,7,7,2
2472,2472,1503599983225,-2,2,3,3,0,1,-1,-2
2473,2473,1503599983239,-3,-20,-5,-1,-5,-4,-2,1
2474,2474,1503599983247,4,-8,0,-1,3,9,4,-2
2475,2475,1503599983254,-6,-18,-5,0,1,-14,-7,0
2476,2476,1503599983270,1,13,-1,-1,-2,-3,-4,1
2477,2477,1503599983277,4,4,0,8,0,2,3,1
2478,2478,1503599983285,-2,1,-7,-5,-4,-3,-19,-6
2479,2479,1503599983307,12,-13,2,-3,1,-6,0,7
2480,2480,1503599983308,-1,-7,-5,0,-4,5,12,4
2481,2481,1503599983314,-4,22,4,2,0,-3,-3,1
2482,2482,1503599983332,-6,0,-5,-1,2,-4,-1,-3
2483,2483,1503599983337,-17,-9,-1,-2,0,-2,1,-9
2484,2484,1503599983345,-2,11,4,6,2,-6,-5,-2
2485,2485,1503599983359,0,0,1,0,-1,1,11,-1
2486,2486,1503599983368,-4,-7,-6,-3,0,14,4,-1
2487,2487,1503599983374,-6,20,10,2,-1,-4,-1,-2
2488,2488,1503599983390,-5,-15,-9,-4,-1,-1,-1,-1
2489,2489,1503599983400,-21,3,0,-1,1,4,-5,-3
2490,2490,1503599983405,-2,-14,1,-1,-1,-4,-6,-5
2491,2491,1503599983420,9,-12,-3,-2,-4,-4,-6,2
2492,2492,1503599983427,3,12,1,-3,-3,1,-1,4
2493,2493,1503599983435,10,1,-1,3,1,1,-3,4
2494,2494,1503599983450,3,34,2,2,0,-4,4,-1
2495,2495,1503599983457,6,-22,-2,-2,2,6,0,-10
2496,2496,1503599983467,-1,-7,-5,-3,3,4,0,5
2497,2497,1503599983480,2,2,-6,-2,-3,2,4,0
2498,2498,1503599983487,-4,14,-2,-1,-2,-12,-1,1
2499,2499,1503599983509,-13,-13,-4,0,0,-3,-1,-3
2500,2500,1503599983510,11,-8,0,-1,-3,-8,-2,1
2501,2501,1503599983517,6,16,-1,-3,-4,2,-4,-2
2502,2502,1503599983533,1,-11,5,0,-2,3,1,-1
2503,2503,1503599983540,-5,21,3,1,1,-7,-4,3
2504,2504,1503599983548,0,-13,-4,0,-1,-3,0,-6
2505,2505,1503599983562,24,4,2,-1,1,8,8,1
2506,2506,1503599983570,12,27,11,3,0,-8,-3,-4
2507,2507,1503599983577,-18,-12,-2,-2,0,-2,-2,-19
2508,2508,1503599983592,-12,-17,-5,-2,0,1,3,0
2509,2509,1503599983601,6,-11,-10,-4,-1,-6,5,6
2510,2510,1503599983614,-7,1,-2,0,-2,-1,-2,-4
2511,2511,1503599983622,3,-8,-6,-3,-2,-5,-7,1
2512,2512,1503599983630,2,-12,-8,-3,-1,2,1,0
2513,2513,1503599983637,10,20,3,0,0,4,4,2
2514,2514,1503599983652,-10,-3,-4,-2,-5,-18,5,12
2515,2515,1503599983659,-13,-13,-5,-2,-1,-4,-3,0
2516,2516,1503599983668,3,11,-1,0,2,13,6,1
2517,2517,1503599983682,-11,-13,5,0,1,-6,-6,1
2518,2518,1503599983691,5,-2,3,1,-1,-2,-6,-8
2519,2519,1503599983697,9,-5,2,0,-2,0,-2,2
2520,2520,1503599983712,-9,-10,0,-3,1,5,2,0
2521,2521,1503599983719,-13,-17,-2,0,0,-3,-1,1
2522,2522,1503599983727,6,-5,-2,1,2,3,-23,-16
2523,2523,1503599983742,-26,6,1,-2,-3,-4,-11,0
2524,2524,1503599983750,-1,-3,-5,-3,1,3,4,-3
2525,2525,1503599983756,0,-4,-6,-3,-2,4,-2,0
2526,2526,1503599983772,-9,0,-2,-3,-1,-1,-4,0
2527,2527,1503599983779,9,24,4,1,1,0,4,0
2528,2528,1503599983787,9,22,16,13,1,1,14,4
2529,2529,1503599983804,9,9,-1,-2,1,4,3,5
2530,2530,1503599983810,-13,-6,-4,-4,-2,-5,-5,-7
2531,2531,1503599983817,-15,-8,-1,-1,0,4,2,3
2532,2532,1503599983832,13,2,-2,-2,-3,2,9,6
2533,2533,1503599983839,2,-3,0,-2,-1,-4,-7,-6
2534,2534,1503599983847,-7,-12,-5,-2,-2,-8,-5,-2
2535,2535,1503599983862,-9,-18,3,-1,-1,-2,-15,-3
2536,2536,1503599983870,8,-11,-2,0,0,-2,-3,-1
2537,2537,1503599983878,7,14,1,-4,-3,-5,12,0
2538,2538,1503599983892,16,13,5,-4,0,20,15,3
2539,2539,1503599983899,6,-2,-2,2,1,2,5,-1
2540,2540,1503599983907,9,6,-4,0,-1,6,-4,1
2541,2541,1503599983922,-11,0,-2,1,0,1,14,-2
2542,2542,1503599983930,5,-17,-2,-1,-1,-3,5,-5
2543,2543,1503599983939,1,-6,-2,1,2,19,12,-15
2544,2544,1503599983951,-29,11,11,2,0,-5,-5,1
2545,2545,1503599983959,1,-16,-5,-1,-1,7,-3,10
2546,2546,1503599983969,-14,-19,-9,-6,-4,-6,-32,-1
2547,2547,1503599983982,-20,-11,3,4,1,-2,-9,-2
2548,2548,1503599983990,26,10,2,-1,0,-1,9,6
2549,2549,1503599983997,-1,5,2,2,1,-14,-5,2
2550,2550,1503599984012,-4,7,-4,-1,2,7,2,-5
2551,2551,1503599984019,1,12,1,-3,-4,-16,7,3
2552,2552,1503599984027,2,1,-2,0,2,5,42,18
2553,2553,1503599984042,2,-1,-3,-1,-5,-3,3,5
2554,2554,1503599984050,6,-5,-3,-3,-5,-4,-9,-4
2555,2555,1503599984057,35,7,2,-4,2,2,-14,-2
2556,2556,1503599984072,-6,-1,-7,1,-2,-10,-13,-9
2557,2557,1503599984079,12,-4,-6,0,-5,4,-3,-3
2558,2558,1503599984087,-3,-17,-3,7,3,4,0,-6
2559,2559,1503599984102,4,2,3,4,9,-13,16,0
2560,2560,1503599984110,-28,10,7,-4,-1,-5,-5,-16
2561,2561,1503599984117,-34,-2,-4,-5,-7,-2,-14,-12
2562,2562,1503599984132,2,14,-6,-5,-2,-5,-4,8
2563,2563,1503599984141,-1,12,-1,-1,-3,-6,-2,-3
2564,2564,1503599984147,-7,-25,-4,-3,-1,-2,-28,-4
2565,2565,1503599984162,3,-7,-2,-2,-1,0,1,6
2566,2566,1503599984172,-23,6,2,0,2,-9,5,-3
2567,2567,1503599984177,15,9,2,1,-1,-5,-6,9
2568,2568,1503599984191,-7,-11,-10,-3,1,4,0,-19
2569,2569,1503599984192,13,16,7,1,-3,-2,3,11
2570,2570,1503599984199,-33,-1,2,4,1,5,1,4
2571,2571,1503599984207,16,2,-6,-3,-2,-2,0,0
2572,2572,1503599984208,-5,2,-1,-4,-2,-5,-2,-8
2573,2573,1503599984222,1,-17,3,2,3,9,7,6
2574,2574,1503599984230,2,0,-4,-3,-3,-4,-29,-9
2575,2575,1503599984243,-10,0,-5,0,-1,2,-9,-14
2576,2576,1503599984251,19,-5,4,2,1,-2,11,21
2577,2577,1503599984266,24,23,0,-2,-1,1,-6,-5
2578,2578,1503599984268,-3,-26,-11,-1,0,0,1,-6
2579,2579,1503599984282,5,-3,4,2,-2,0,12,-1
2580,2580,1503599984290,-6,17,4,0,-1,6,11,0
2581,2581,1503599984297,37,4,1,-5,-1,-4,-3,9
2582,2582,1503599984312,-8,-1,5,0,-2,21,11,3
2583,2583,1503599984319,-2,5,-8,-6,-6,-12,-6,-4
2584,2584,1503599984327,-11,-10,1,0,0,-3,2,4
2585,2585,1503599984343,-22,-30,-11,-3,-2,0,-10,-7
2586,2586,1503599984350,21,18,-7,-1,-2,-8,-7,-1
2587,2587,1503599984357,-9,-1,-3,-3,-2,13,1,-2
2588,2588,1503599984374,15,-3,-7,-3,-2,-4,2,-6
2589,2589,1503599984379,-16,25,7,2,3,9,7,-7
2590,2590,1503599984387,-34,0,-3,-3,-3,9,3,-13
2591,2591,1503599984402,32,8,1,0,8,16,-8,2
2592,2592,1503599984410,-10,-13,0,2,-1,-18,8,-15
2593,2593,1503599984423,18,-3,-5,-1,-2,-4,0,7
2594,2594,1503599984424,9,5,-2,-1,6,18,24,-3
2595,2595,1503599984432,4,-20,0,6,-1,5,13,5
2596,2596,1503599984442,-10,-9,4,-3,-8,-49,4,-7
2597,2597,1503599984454,-9,2,5,-1,1,-10,-11,-8
2598,2598,1503599984462,-1,14,7,2,-9,-37,-13,-2
2599,2599,1503599984470,29,16,6,-1,-1,4,-14,15
2600,2600,1503599984484,-23,3,-2,-1,-2,3,-3,-6
2601,2601,1503599984492,-14,-6,-5,-1,7,24,10,9
2602,2602,1503599984499,32,64,18,5,4,5,-16,5
2603,2603,1503599984514,-19,4,-8,-4,-10,-27,-16,-7
2604,2604,1503599984522,2,-18,-1,-2,1,8,4,2
2605,2605,1503599984530,12,12,1,-1,-1,4,-45,-18
2606,2606,1503599984544,-12,-25,-8,-2,-6,-22,1,-1
2607,2607,1503599984552,32,-1,2,-2,-3,-7,20,4
2608,2608,1503599984559,-35,-20,-9,-5,0,-3,-5,-3
2609,2609,1503599984575,11,10,16,3,6,23,19,10
2610,2610,1503599984582,-30,16,-10,-2,5,17,10,9
2611,2611,1503599984590,6,-12,-8,-1,-3,-6,0,3
2612,2612,1503599984603,6,-11,1,4,0,9,-3,-10
2613,2613,1503599984612,-6,0,1,-1,-1,-2,-1,-2
2614,2614,1503599984619,12,-20,-4,-4,-8,-19,7,15
2615,2615,1503599984634,-24,-33,-10,-2,-1,-3,5,0
2616,2616,1503599984642,-12,-15,-3,-1,-4,9,-15,-14
2617,2617,1503599984651,-10,-23,-7,-3,-2,-13,3,9
2618,2618,1503599984665,-1,-15,-6,-4,-1,18,0,-5
2619,2619,1503599984673,11,16,-1,1,4,6,-7,-20
2620,2620,1503599984679,9,14,4,4,2,-6,-2,5
2621,2621,1503599984694,8,10,0,-2,-2,-9,3,9
2622,2622,1503599984701,13,-3,-10,7,8,11,-52,-9
2623,2623,1503599984710,-49,-5,-1,-6,-2,-3,-12,-4
2624,2624,1503599984724,15,-7,-2,-7,-4,-3,9,4
2625,2625,1503599984732,54,17,4,2,-6,4,-9,12
2626,2626,1503599984742,-30,-5,1,2,-2,-7,-6,0
2627,2627,1503599984754,-45,-16,-2,1,6,4,11,-7
2628,2628,1503599984762,6,-14,-4,-1,0,7,12,10
2629,2629,1503599984770,17,25,8,5,-2,2,1,7
2630,2630,1503599984785,-4,0,-16,-10,-5,-3,-2,-19
2631,2631,1503599984792,17,-4,-4,-3,1,4,-5,4
2632,2632,1503599984799,-83,-23,-1,0,-2,-6,-7,-4
2633,2633,1503599984814,-8,25,0,1,-3,-11,-6,-3
2634,2634,1503599984822,20,-15,2,-2,0,0,10,6
2635,2635,1503599984830,-15,-4,5,2,2,1,9,6
2636,2636,1503599984843,37,0,8,1,0,-9,8,-8
2637,2637,1503599984852,-31,-54,-6,-1,-2,-5,-6,-30
2638,2638,1503599984866,17,16,18,6,3,-9,-5,11
2639,2639,1503599984876,26,49,9,2,2,-3,10,0
2640,2640,1503599984882,39,40,4,5,4,17,9,-8
2641,2641,1503599984890,36,-16,-12,0,-5,-3,14,8
2642,2642,1503599984904,-59,1,6,1,-1,-8,5,-20
2643,2643,1503599984912,34,5,-20,-7,-11,-18,0,-16
2644,2644,1503599984919,5,-4,6,0,-3,1,-4,27
2645,2645,1503599984934,-15,-17,-7,-2,13,38,-9,6
2646,2646,1503599984945,13,4,-5,-3,-4,6,-22,-13
2647,2647,1503599984950,16,1,9,0,3,-4,-3,1
2648,2648,1503599984964,-63,-39,-9,-9,1,11,-3,-7
2649,2649,1503599984972,-6,-10,-12,-4,-2,11,-2,3
2650,2650,1503599984980,36,36,13,1,-4,-16,5,4
2651,2651,1503599984994,-22,-8,-4,1,-4,-16,18,8
2652,2652,1503599985002,-13,-15,-17,-5,-3,-2,-12,-1
2653,2653,1503599985011,-51,23,5,4,0,-8,-6,2
2654,2654,1503599985025,11,23,5,1,-1,-23,8,10
2655,2655,1503599985032,22,-2,4,-5,-2,7,-3,-1
2656,2656,1503599985039,8,23,-4,2,-7,3,33,-2
2657,2657,1503599985054,-19,0,8,1,1,3,-10,-8
2658,2658,1503599985061,-41,-29,-12,-5,2,-3,1,-16
2659,2659,1503599985077,13,9,1,-10,-2,2,-19,3
2660,2660,1503599985084,48,-11,-4,-2,-2,23,-10,8
2661,2661,1503599985092,-8,-7,-3,-4,-10,-30,-10,0
2662,2662,1503599985099,21,8,2,-2,4,-24,6,12
2663,2663,1503599985114,27,9,-3,-1,-6,-10,-45,-10
2664,2664,1503599985122,52,-12,-12,2,-2,-3,-13,11
2665,2665,1503599985130,-3,-17,-14,1,-1,-12,31,-1
2666,2666,1503599985145,-11,-9,2,2,0,5,0,-5
2909,2909,1503599987521,13,33,19,3,-1,6,-4,2
2910,2910,1503599987530,28,6,-10,-5,2,6,1,4
2911,2911,1503599987537,9,-2,-3,-8,1,14,-5,-4
2912,2912,1503599987552,-6,-16,6,-3,0,-5,0,-9
2913,2913,1503599987559,8,14,0,0,5,40,5,4
2914,2914,1503599987560,-12,-27,-31,-8,-6,-17,-2,-3
2915,2915,1503599987574,15,12,1,2,-11,-3,-14,-2
2916,2916,1503599987582,-10,-34,-9,-1,6,17,-17,-5
2917,2917,1503599987589,-13,15,5,0,1,-3,15,3
2918,2918,1503599987590,-15,-33,-20,-3,4,10,9,-1
2919,2919,1503599987597,-15,-12,2,-5,-7,-2,-8,-3
2920,2920,1503599987612,6,2,-1,-4,-1,-1,-1,5
2921,2921,1503599987619,-25,-16,-5,-5,1,-3,11,-1
2922,2922,1503599987634,-13,-3,1,1,6,1,1,-6
2923,2923,1503599987641,5,-4,-5,-7,-3,0,-6,-11
2924,2924,1503599987649,4,22,17,4,2,-8,1,-4
2925,2925,1503599987656,33,31,5,3,1,1,4,7
2926,2926,1503599987672,-16,28,-1,-2,-2,2,-3,-3
2927,2927,1503599987679,16,-3,-1,1,-7,11,-1,10
2928,2928,1503599987696,-21,2,4,-3,0,3,-1,4
2929,2929,1503599987702,-11,-8,3,-2,2,2,0,-2
2930,2930,1503599987710,-3,-8,19,5,0,-9,-9,-8
2931,2931,1503599987716,13,-2,3,0,-3,-10,-9,5
2932,2932,1503599987732,-52,4,-4,-3,-1,1,4,8
2933,2933,1503599987739,-9,-2,-2,7,2,-1,8,2
2934,2934,1503599987755,15,21,-5,3,0,-9,-6,-1
2935,2935,1503599987763,-4,17,-8,-5,-10,-1,0,-9
2936,2936,1503599987771,59,68,24,-3,-9,-17,-8,-4
2937,2937,1503599987777,-50,-22,-2,-4,6,2,4,-12
2938,2938,1503599987792,-7,-34,-14,-4,6,-2,37,-11
2939,2939,1503599987800,1,0,37,15,7,9,8,7
2940,2940,1503599987815,19,21,13,3,-2,9,3,1
2941,2941,1503599987821,36,-23,-34,-14,-8,-6,-5,-5
2942,2942,1503599987831,-36,-16,11,0,1,4,-4,3
2943,2943,1503599987832,12,-39,-18,-1,-3,7,-7,0
2944,2944,1503599987837,-6,18,6,8,8,21,-9,-25
2945,2945,1503599987852,13,-11,-2,2,-4,0,-5,15
2946,2946,1503599987859,28,14,1,4,8,4,13,13
2947,2947,1503599987875,-3,38,1,-10,-9,-11,-5,-9
2948,2948,1503599987881,4,-6,12,4,2,-3,-1,9
2949,2949,1503599987898,11,16,6,0,-1,-3,-8,3
2950,2950,1503599987912,-17,-25,-2,5,3,1,-1,-13
2951,2951,1503599987919,-13,0,-14,-10,-8,-15,2,0
2952,2952,1503599987935,-16,-20,-3,5,0,-10,-14,-6
2953,2953,1503599987942,2,-15,-14,-6,-4,-7,-10,0
2954,2954,1503599987950,-2,7,8,2,1,4,-17,-11
2955,2955,1503599987957,-2,-2,-3,-2,-1,5,-14,4
2956,2956,1503599987973,-39,-5,-4,-1,-2,22,2,-2
2957,2957,1503599987979,-6,-45,1,5,4,1,3,-2
2958,2958,1503599987994,10,63,11,-1,-3,1,-8,9
2959,2959,1503599987995,-6,-27,2,5,8,6,-2,-6
2960,2960,1503599988002,-43,-28,-20,-9,2,12,9,-14
2961,2961,1503599988010,9,-5,-3,-2,-2,2,11,14
2962,2962,1503599988016,-24,20,8,3,-2,-6,1,-5
2963,2963,1503599988032,-5,19,7,2,-1,4,13,-1
2964,2964,1503599988040,9,19,21,1,-4,-8,3,17
2965,2965,1503599988055,2,-18,-5,-1,-1,-3,-8,-1
2966,2966,1503599988061,6,14,-3,-2,3,-2,-6,-10
2967,2967,1503599988071,2,-26,-8,-5,1,-2,6,8
2968,2968,1503599988076,15,0,-5,-1,-1,-4,32,5
2969,2969,1503599988092,0,39,-4,-3,-5,4,-3,3
2970,2970,1503599988100,30,11,4,-7,-12,-28,-18,4
2971,2971,1503599988114,-27,-8,-2,-1,1,1,7,5
2972,2972,1503599988121,21,20,-7,0,-4,23,1,25
2973,2973,1503599988137,-3,5,3,-4,-3,-4,-9,-2
2974,2974,1503599988144,13,13,9,5,1,-1,-4,-2
2975,2975,1503599988152,-45,65,27,-1,-1,-2,-3,-4
2976,2976,1503599988159,-30,22,0,-7,-3,22,-8,-1
2977,2977,1503599988176,-5,-34,2,7,3,0,-7,-19
2978,2978,1503599988182,-28,24,3,-1,-2,-11,-6,0
2979,2979,1503599988197,20,18,-4,4,-3,-6,3,21
2980,2980,1503599988204,47,-36,11,10,6,-3,-7,-20
2981,2981,1503599988212,55,0,-15,-7,-1,-24,2,12
2982,2982,1503599988219,-6,-23,-26,-15,-1,3,15,2
2983,2983,1503599988235,-17,-22,5,4,8,12,-4,-11
2984,2984,1503599988242,13,8,-8,-8,-5,-14,4,0
2985,2985,1503599988251,14,10,-2,-8,-6,-1,2,18
2986,2986,1503599988269,-35,18,31,7,4,2,-18,-34
2987,2987,1503599988273,8,-12,-7,0,-2,-6,0,-12
2988,2988,1503599988279,29,-25,-2,7,-1,-16,5,8
2989,2989,1503599988295,-15,-11,-11,-23,-8,7,-1,0
2990,2990,1503599988302,7,-34,-13,-5,-2,5,6,8
2991,2991,1503599988309,22,-15,-10,-5,-5,25,18,5
2992,2992,1503599988324,2,3,15,10,0,-2,13,5
2993,2993,1503599988333,26,25,15,4,2,0,-7,2
2994,2994,1503599988339,-21,-5,-12,-4,-1,-9,-10,-4
2995,2995,1503599988355,8,26,-3,-4,-4,-7,11,-14
2996,2996,1503599988362,-6,8,3,12,-3,-20,-22,7
2997,2997,1503599988370,-9,-8,-10,-3,-12,-24,-54,1
2998,2998,1503599988386,-84,-37,-4,-10,-5,-2,-2,-8
2999,2999,1503599988392,-99,-27,1,13,12,25,-6,-15
3000,3000,1503599988402,45,-18,-20,-6,0,4,-10,-8
3001,3001,1503599988414,-62,-54,-22,-11,-1,6,10,10
3002,3002,1503599988422,-40,-13,-3,6,19,32,12,-11
3003,3003,1503599988429,57,11,-4,-4,-1,-5,-7,-10
3004,3004,1503599988444,20,23,12,-2,1,17,21,6
3005,3005,1503599988452,-20,-40,5,-1,-7,-4,12,13
3006,3006,1503599988459,56,60,24,4,-4,-21,-43,10
3007,3007,1503599988474,34,19,-6,0,-3,-6,7,18
3008,3008,1503599988481,2,2,-9,-5,-4,-1,-7,4
3009,3009,1503599988490,2,25,38,0,0,-6,6,-30
3010,3010,1503599988504,-12,16,-17,-13,-10,-37,2,13
3011,3011,1503599988512,8,10,-11,-3,3,16,9,-4
3012,3012,1503599988519,5,5,9,6,0,22,2,12
3013,3013,1503599988536,22,7,9,9,4,-1,-11,5
3014,3014,1503599988541,10,4,-20,-3,-3,-7,-3,-2
3015,3015,1503599988549,21,-10,-7,-2,1,6,6,6
3016,3016,1503599988564,-27,-8,-5,-7,-2,-4,-5,2
3017,3017,1503599988565,-24,-18,-10,0,-3,12,7,6
3018,3018,1503599988572,-45,-5,3,11,4,18,28,-43
3019,3019,1503599988579,-7,-8,5,4,6,-9,-1,-10
3020,3020,1503599988594,-5,29,4,-1,-7,-11,-20,24
3021,3021,1503599988602,-31,-12,-6,1,-3,17,3,-12
3022,3022,1503599988609,22,-2,-4,1,2,-20,-20,3
3023,3023,1503599988624,-15,13,42,2,7,2,15,11
3024,3024,1503599988632,-10,-6,-28,-18,-11,7,6,25
3025,3025,1503599988639,-34,-15,-14,-4,-2,-6,-7,-15
3026,3026,1503599988654,-14,-11,4,3,9,17,11,-12
3027,3027,1503599988661,24,12,1,2,-5,-5,-6,-12
3028,3028,1503599988670,9,-13,6,0,-3,-18,22,2
3029,3029,1503599988684,-20,17,-1,1,11,26,22,2
3030,3030,1503599988692,51,6,1,-1,-2,-11,-8,21
3031,3031,1503599988699,1,7,15,13,-5,10,5,5
3032,3032,1503599988714,-23,-2,8,5,3,7,12,-6
3033,3033,1503599988721,24,-13,-19,-14,-9,9,11,6
3034,3034,1503599988729,-19,-13,2,4,4,2,2,2
3035,3035,1503599988745,-31,-35,-16,-11,-6,-13,-6,-10
3036,3036,1503599988752,18,21,-3,-1,1,10,-11,-11
3037,3037,1503599988759,-51,4,-1,-4,-8,-6,5,4
3038,3038,1503599988775,-19,-10,-1,-3,-10,-45,-2,-4
3039,3039,1503599988781,13,21,7,3,-3,-7,12,0
3040,3040,1503599988789,2,1,-8,5,2,-2,19,-1
3041,3041,1503599988804,36,8,-12,-17,0,-3,-24,5
3042,3042,1503599988812,15,2,1,-4,-4,-14,-22,-7
3043,3043,1503599988819,-1,-13,-4,1,5,-3,-10,7
3044,3044,1503599988842,-7,34,16,-2,-8,2,4,12
3045,3045,1503599988843,49,16,18,11,-1,-10,3,4
3046,3046,1503599988849,1,-16,-6,5,8,-8,-10,-21
3047,3047,1503599988864,-14,-14,-7,5,11,7,11,-30
3048,3048,1503599988872,3,-2,1,3,7,-1,2,4
3049,3049,1503599988879,6,-12,-4,-6,1,-1,-3,-5
3050,3050,1503599988894,-33,9,-8,-11,-5,13,3,-15
3051,3051,1503599988902,-14,-14,3,10,1,-3,6,7
3052,3052,1503599988910,16,-8,-3,1,3,10,-6,1
3053,3053,1503599988924,8,2,3,7,2,-7,-5,5
3054,3054,1503599988932,31,2,-2,-2,-3,0,7,35
3055,3055,1503599988940,-40,-24,-7,-3,-3,-9,-23,-1
3056,3056,1503599988954,23,2,-8,-8,-15,-28,-16,9
3057,3057,1503599988961,-17,31,4,-9,-10,-2,-4,-3
3058,3058,1503599988976,-33,-13,10,6,10,-3,-24,-9
3059,3059,1503599988984,30,2,-2,-2,-2,-7,6,8
3060,3060,1503599988992,23,-8,0,-1,1,10,-8,-30
3061,3061,1503599988999,-30,-13,-2,3,1,1,7,6
3062,3062,1503599989015,-32,1,-1,0,-4,9,-2,21
3063,3063,1503599989021,78,25,24,9,7,-5,-8,-13
3064,3064,1503599989029,-36,-15,-1,1,-1,-4,9,-17
3065,3065,1503599989044,-3,-4,-8,-11,-8,-4,-4,-6
3066,3066,1503599989055,4,-11,20,3,3,-14,0,-4
3067,3067,1503599989059,-15,-11,-17,-13,-9,-7,7,-11
3068,3068,1503599989075,10,16,-16,2,8,11,-5,-5
3069,3069,1503599989081,2,-4,-4,-12,-3,4,-11,2
3070,3070,1503599989096,-2,-12,-11,-5,-8,1,7,-8
3071,3071,1503599989106,31,27,16,6,2,-14,-11,9
3072,3072,1503599989112,41,9,-6,-3,-6,-6,-5,7
3073,3073,1503599989126,-41,-11,7,4,-1,-6,-5,4
3074,3074,1503599989127,0,18,-7,-4,-2,-1,0,-9
3075,3075,1503599989135,-3,17,2,2,0,-5,1,22
3076,3076,1503599989143,-18,-29,-5,0,-12,16,13,7
3077,3077,1503599989156,-42,-8,-5,-8,-4,7,2,-10
3078,3078,1503599989164,-12,-28,-5,5,9,-1,-29,2
3079,3079,1503599989174,-8,-4,15,0,-2,8,1,-3
3080,3080,1503599989186,-14,-11,4,6,0,4,5,-6
3081,3081,1503599989194,40,3,-9,0,1,-5,-10,-8
3082,3082,1503599989201,-2,16,13,9,8,11,-2,-30
3083,3083,1503599989216,-5,0,1,-2,-2,-7,4,-5
3084,3084,1503599989224,13,-2,-6,-6,0,-5,2,7
3085,3085,1503599989232,-4,-8,2,1,0,-10,-25,-6
3086,3086,1503599989246,23,-3,0,-2,-2,-16,-18,1
3087,3087,1503599989254,2,-15,-6,-2,-6,0,-3,-2
3088,3088,1503599989261,-22,39,13,14,11,8,10,-12
3089,3089,1503599989276,-9,11,13,8,0,-34,-19,-14
3090,3090,1503599989284,-6,-19,-7,-2,1,8,-7,-19
3091,3091,1503599989292,9,-11,-2,0,12,4,3,15
3092,3092,1503599989307,6,-3,-3,-5,-1,11,17,-5
3093,3093,1503599989315,2,-19,-7,3,2,19,27,13
3094,3094,1503599989321,-36,-14,-6,-1,-1,-2,6,10
3095,3095,1503599989336,11,-10,-10,-3,-12,-2,-11,-13
3096,3096,1503599989344,12,17,3,0,-1,-9,11,4
3097,3097,1503599989359,-31,1,14,4,3,20,12,-23
3098,3098,1503599989366,-10,11,-4,-5,-4,-1,-4,5
3099,3099,1503599989382,-61,-26,-10,-12,-7,-4,-13,3
3100,3100,1503599989397,-31,7,-4,-10,-5,-12,-11,24
3101,3101,1503599989404,14,-6,-3,0,-8,11,27,-3
3102,3102,1503599989412,-7,-16,-11,-6,-2,5,29,22
3103,3103,1503599989426,-8,-12,-16,-6,0,-7,-14,0
3104,3104,1503599989435,-2,4,1,9,-2,-15,-13,-10
3105,3105,1503599989442,25,-9,-1,8,17,20,-2,-38
3106,3106,1503599989456,11,19,-1,-4,13,17,-6,2
3107,3107,1503599989465,19,2,1,-2,-3,-3,-1,27
3108,3108,1503599989475,28,-24,-1,-5,1,16,-2,-5
3109,3109,1503599989487,11,4,4,-5,-10,-5,-5,-8
3110,3110,1503599989494,21,5,-12,-9,-4,20,23,10
3111,3111,1503599989502,-4,13,13,6,5,-5,11,12
3112,3112,1503599989517,-18,13,-2,-2,-9,-21,-10,-18
3113,3113,1503599989524,34,7,-5,-6,2,18,-3,10
3114,3114,1503599989532,-46,30,12,6,3,2,-2,-18
3115,3115,1503599989547,15,26,6,-2,-12,0,-4,3
3116,3116,1503599989554,23,4,-4,-4,-2,4,-10,14
3117,3117,1503599989561,11,-6,2,1,-11,-40,-5,0
3118,3118,1503599989576,-61,-5,-2,-2,0,23,-9,-9
3119,3119,1503599989577,51,8,-1,0,2,-7,-9,1
3120,3120,1503599989585,-11,-4,5,3,11,7,5,-2
3121,3121,1503599989592,28,11,-2,6,-3,-30,-4,13
3122,3122,1503599989609,-20,1,-10,-3,8,6,-3,-3
3123,3123,1503599989615,-11,-9,4,7,16,28,13,-2
3124,3124,1503599989621,-6,-9,-4,-3,-4,0,2,-33
3125,3125,1503599989637,17,3,6,-1,2,18,-15,-5
3126,3126,1503599989644,-13,-13,-5,-1,-6,-2,-2,13
3127,3127,1503599989652,-45,-12,-6,-6,-9,-15,-9,-8
3128,3128,1503599989667,8,-2,-5,-5,-6,-17,6,1
3129,3129,1503599989676,-1,-4,1,-1,4,38,10,-1
3130,3130,1503599989681,-13,-6,-1,0,-6,-6,-56,28
3131,3131,1503599989697,22,-7,-7,-10,-12,-3,3,3
3132,3132,1503599989704,10,14,-7,-4,-17,-16,42,15
3133,3133,1503599989712,-2,13,1,-2,-4,2,-8,5
3134,3134,1503599989727,17,-9,-12,-3,-4,4,-2,2
3135,3135,1503599989728,-30,-13,11,4,8,1,2,-7
3136,3136,1503599989738,-4,-10,-2,-3,-13,-40,10,-9
3137,3137,1503599989744,12,4,2,-1,5,8,9,3
3138,3138,1503599989756,14,17,-3,-1,5,-2,-1,4
3139,3139,1503599989764,16,13,-17,-2,-1,1,-5,10
3140,3140,1503599989772,-61,-35,-11,-2,-2,-8,1,3
3141,3141,1503599989787,10,7,7,-2,3,5,-1,-10
3142,3142,1503599989794,-10,1,6,6,4,10,-8,-1
3143,3143,1503599989801,-14,-28,-6,0,3,6,-7,-9
3144,3144,1503599989817,0,4,5,-2,5,2,-10,14
3145,3145,1503599989824,-9,-16,0,1,0,-17,0,10
3146,3146,1503599989832,-6,-9,-7,-6,-2,-1,24,-12
3147,3147,1503599989847,-10,-5,8,1,1,2,-3,-8
3148,3148,1503599989854,-20,2,13,2,1,-4,-6,-9
3149,3149,1503599989861,20,14,2,-2,0,0,-2,-20
3150,3150,1503599989877,7,16,11,0,-2,-3,-3,6
3151,3151,1503599989884,-28,-18,-2,1,1,-6,-18,0
3152,3152,1503599989892,-19,-13,-6,0,-1,1,-1,0
3153,3153,1503599989906,-2,-15,-5,-7,-4,9,9,5
3154,3154,1503599989915,-4,26,3,-1,0,-8,2,-1
3155,3155,1503599989921,35,0,0,-3,1,10,8,4
3156,3156,1503599989936,33,12,-8,0,0,4,0,-9
3157,3157,1503599989945,24,8,0,2,-2,-1,3,9
3158,3158,1503599989952,31,-7,1,-2,1,4,1,7
3159,3159,1503599989966,-21,0,-6,-3,-1,-4,2,5
3160,3160,1503599989974,11,-14,-12,-2,-3,11,-2,-7
3161,3161,1503599989982,-7,6,1,-1,-4,-8,2,-6
3162,3162,1503599989996,17,16,-2,-1,-2,-3,3,-3
3163,3163,1503599990004,-17,22,-4,1,1,22,-9,-14
3164,3164,1503599990019,3,-10,8,3,5,6,-2,0
3165,3165,1503599990027,7,-2,-1,9,5,-8,-5,-4
3166,3166,1503599990034,-19,-3,2,10,12,0,-2,-9
3167,3167,1503599990048,-38,-16,4,-2,-4,-8,0,-8
3168,3168,1503599990056,-12,-14,-7,-6,-4,-3,-3,-2
3169,3169,1503599990064,-3,-11,-8,-5,-3,5,-11,0
3170,3170,1503599990080,-3,6,-1,-2,-4,-2,-11,3
3171,3171,1503599990087,-13,-8,-2,-2,-3,6,5,11
3172,3172,1503599990094,6,1,0,2,-6,-10,0,4
3173,3173,1503599990109,14,0,-1,-2,1,-10,-2,0
3174,3174,1503599990117,14,38,-6,-7,-1,15,8,0
3175,3175,1503599990124,-20,13,2,-1,-2,-6,-3,8
3176,3176,1503599990139,14,-22,-10,-3,-6,-9,-8,-3
3177,3177,1503599990147,21,26,7,5,1,3,5,-6
3178,3178,1503599990155,-13,-8,-2,1,2,-7,7,-8
3179,3179,1503599990168,14,-9,-7,-3,-3,-7,0,-20
3180,3180,1503599990176,5,-3,3,-4,-15,-9,-6,-5
3181,3181,1503599990184,4,2,-3,-3,7,16,-2,6
3182,3182,1503599990199,8,0,0,3,7,14,1,-21
3183,3183,1503599990206,15,-8,14,5,-1,3,-11,-14
3184,3184,1503599990215,-12,-22,0,-1,3,-5,-7,1
3185,3185,1503599990228,-12,-31,-11,-4,0,-6,6,4
3186,3186,1503599990236,3,-5,3,-2,-4,-8,-2,0
3187,3187,1503599990244,22,15,-1,-3,-3,-3,10,3
3188,3188,1503599990259,13,9,1,0,3,8,1,-11
3189,3189,1503599990267,3,26,3,-2,-2,7,-4,7
3190,3190,1503599990274,-10,0,0,0,6,-1,2,9
3191,3191,1503599990289,-6,5,0,1,-3,-17,-4,5
3192,3192,1503599990297,-21,-14,-9,-4,0,-3,2,9
3193,3193,1503599990304,-3,-11,-5,-4,-3,-5,-1,3
3194,3194,1503599990319,-6,-7,0,1,-1,-10,-11,-1
3195,3195,1503599990326,1,-4,0,-2,0,3,-7,-2
3196,3196,1503599990334,-25,-19,-2,-2,-3,-8,3,-2
3197,3197,1503599990348,0,5,2,3,0,-1,-1,6
3198,3198,1503599990356,10,13,2,-2,-2,-23,0,-4
3199,3199,1503599990364,14,-5,2,1,-1,-2,1,-21
3200,3200,1503599990381,6,7,20,5,-1,6,-1,6
3201,3201,1503599990386,-7,-6,-8,-6,-2,-3,1,0
3202,3202,1503599990394,17,11,12,5,2,7,-2,2
3203,3203,1503599990408,1,0,0,8,4,7,5,11
3204,3204,1503599990417,-6,-4,-11,-6,-3,5,4,14
3205,3205,1503599990424,2,-17,0,-1,0,-5,-2,-19
3206,3206,1503599990439,5,-6,1,0,2,11,-1,4
3207,3207,1503599990448,-34,-15,-7,-1,-4,0,3,-3
3208,3208,1503599990449,-1,-8,-6,-3,0,0,-4,-3
3209,3209,1503599990454,16,17,-1,-2,-2,6,3,-2
3210,3210,1503599990468,-3,-2,2,2,0,2,1,2
3211,3211,1503599990476,-13,17,-5,-3,-4,-3,-4,-1
3212,3212,1503599990484,-14,-3,-1,-3,-4,-6,3,-8
3213,3213,1503599990499,-27,-16,-5,1,-1,0,-6,-5
3214,3214,1503599990506,3,24,6,-2,-4,-1,3,10
3215,3215,1503599990516,-11,-15,-7,-3,-7,-7,3,-7
3216,3216,1503599990528,-1,1,4,2,6,5,9,5
3217,3217,1503599990536,-25,12,7,8,1,-5,2,-2
3218,3218,1503599990544,7,17,8,1,0,0,-4,-23
3219,3219,1503599990559,-6,-19,-7,-4,1,5,18,1
3220,3220,1503599990566,-11,-9,-7,-1,-1,-11,-6,5
3221,3221,1503599990574,25,-13,-4,-2,2,0,-5,-12
3222,3222,1503599990589,-11,-5,-9,-5,-2,-2,3,4
3223,3223,1503599990596,-5,-18,-15,-5,-3,-5,-3,8
3224,3224,1503599990611,18,-3,-2,-1,-1,-1,-3,12
3225,3225,1503599990620,-8,-9,1,-1,-1,2,0,9
3226,3226,1503599990626,-5,9,-3,-4,-6,-3,-4,1
3227,3227,1503599990627,5,2,2,-1,-4,-2,-4,6
3228,3228,1503599990634,10,9,9,1,3,-5,0,-3
3229,3229,1503599990650,-16,-18,-1,-2,-1,-11,-16,-5
3230,3230,1503599990651,2,5,1,-3,-3,-5,3,0
3231,3231,1503599990656,24,16,-1,-2,-1,0,-2,-3
3232,3232,1503599990671,-2,-4,-3,0,-3,4,0,-4
3233,3233,1503599990679,-15,2,-3,-1,-2,0,-9,-5
3234,3234,1503599990693,3,2,-3,-1,1,-10,-9,-8
3235,3235,1503599990695,0,5,1,-2,-1,2,-3,1
3236,3236,1503599990708,-18,-13,-2,-2,-1,9,-2,2
3237,3237,1503599990717,18,18,4,0,3,4,-3,-2
3238,3238,1503599990725,-5,-9,-7,-4,-2,-3,0,5
3239,3239,1503599990739,-1,-9,-3,-2,-3,-8,-4,4
3240,3240,1503599990746,-13,5,0,-2,1,0,-4,-2
3241,3241,1503599990755,-1,10,4,0,1,0,-9,-1
3242,3242,1503599990768,9,14,1,0,2,0,-1,-3
3243,3243,1503599990776,6,0,1,0,-1,3,2,4
3244,3244,1503599990785,-5,25,0,1,-2,-4,0,0
3245,3245,1503599990799,-12,-9,-9,7,-5,-10,1,8
3246,3246,1503599990806,0,-7,-1,1,0,-1,-1,0
3247,3247,1503599990814,-13,5,-2,-5,-3,4,-2,-1
3248,3248,1503599990828,16,-6,-3,-1,-5,2,3,13
3249,3249,1503599990836,0,-3,-2,-3,0,-2,-2,-1
3250,3250,1503599990844,-4,-4,0,-2,0,5,1,-3
3251,3251,1503599990859,5,17,5,2,-3,-1,2,1
3252,3252,1503599990866,9,7,-2,-2,-3,-1,1,-1
3253,3253,1503599990874,0,-13,-2,0,2,0,-2,-6
3254,3254,1503599990888,8,-7,4,3,-1,-2,-4,-23
3255,3255,1503599990896,-9,-13,-3,1,-1,-2,2,-4
3256,3256,1503599990904,-9,-13,-1,3,4,2,1,3
3257,3257,1503599990926,2,11,-1,0,-1,-3,-16,-7
3258,3258,1503599990927,-16,-10,-7,-7,-8,-14,-4,0
3259,3259,1503599990941,14,3,0,-1,-1,1,2,3
3260,3260,1503599990948,3,12,2,1,-2,1,-2,4
3261,3261,1503599990957,-7,-21,1,1,-1,-6,0,-4
3262,3262,1503599990971,11,-16,0,-2,2,1,1,-1
3263,3263,1503599990979,2,-3,0,-2,1,2,1,0
3264,3264,1503599990987,1,3,-1,-2,-1,3,-1,6
3265,3265,1503599991001,-3,6,1,-3,-3,3,6,0
3266,3266,1503599991008,2,-4,0,2,2,1,-2,3
3267,3267,1503599991018,-7,3,0,-1,2,7,8,1
3268,3268,1503599991031,-16,-6,-6,-5,-2,0,2,-4
3269,3269,1503599991039,2,-8,-6,-1,5,3,-2,-4
3270,3270,1503599991046,-4,-6,-3,1,-2,2,0,-5
3271,3271,1503599991062,7,2,2,3,-2,-4,7,-4
3272,3272,1503599991068,-2,8,-1,-3,-7,-5,3,11
3273,3273,1503599991076,14,9,2,-4,-1,-6,-4,2
3274,3274,1503599991091,8,19,1,2,-1,-4,-1,-5
3275,3275,1503599991099,7,3,1,-1,-3,-5,-9,-11
3276,3276,1503599991107,11,-14,-2,-1,1,3,0,-5
3277,3277,1503599991122,6,17,4,2,0,-5,1,6
3278,3278,1503599991128,-11,4,-2,-2,-2,-2,-5,-3
3279,3279,1503599991136,-2,13,-4,-1,-1,0,2,7
3280,3280,1503599991153,6,-2,-4,1,0,1,-3,1
3281,3281,1503599991154,-5,-3,3,-1,4,6,1,-2
3282,3282,1503599991159,-20,-11,-1,-2,-9,-1,-1,-4
3283,3283,1503599991166,-1,-7,-2,-1,0,4,2,2
3284,3284,1503599991181,-23,-26,-9,5,0,0,-3,4
3285,3285,1503599991188,1,6,4,0,0,-4,-4,-1
3286,3286,1503599991196,-16,-9,0,-5,-1,1,1,7
3287,3287,1503599991211,0,4,-4,-1,1,3,0,1
3288,3288,1503599991221,-8,1,7,1,-1,-4,-1,0
3289,3289,1503599991222,15,13,0,-1,-1,-6,-6,-9
3290,3290,1503599991226,-8,4,3,1,-2,-3,7,8
3291,3291,1503599991227,-8,-20,-4,-1,-1,-4,-10,-9
3292,3292,1503599991241,-6,18,3,-3,-1,13,-2,-3
3293,3293,1503599991248,10,10,-1,-1,0,-9,-15,-1
3294,3294,1503599991260,-19,-10,-2,1,1,-5,-2,-8
3295,3295,1503599991271,-4,4,2,1,4,2,0,-6
3296,3296,1503599991279,15,15,1,1,1,-3,1,-4
3297,3297,1503599991288,2,3,-3,1,-5,-4,2,-2
3298,3298,1503599991301,31,-19,-6,-2,-1,-1,1,5
3299,3299,1503599991308,-1,-9,-8,-4,0,-2,4,4
3300,3300,1503599991316,-7,-8,2,0,1,-2,-2,0
3301,3301,1503599991331,10,-2,2,1,1,2,5,3
3302,3302,1503599991339,4,2,-1,-1,0,1,5,-1
3303,3303,1503599991346,-14,2,-2,-1,-2,-3,2,-2
3304,3304,1503599991362,8,34,7,0,0,-4,-7,8
3305,3305,1503599991368,4,-4,-1,0,-4,6,4,1
3306,3306,1503599991376,-23,-20,-1,-3,2,0,-5,-14
3307,3307,1503599991392,-1,21,7,0,-3,-3,-5,-1
3308,3308,1503599991399,18,4,-6,-6,-2,-3,-3,2
3309,3309,1503599991408,2,-7,2,-1,-4,-5,-1,-2
3310,3310,1503599991423,-6,-4,0,0,1,-4,1,1
3311,3311,1503599991429,7,23,7,2,5,8,-2,5
3312,3312,1503599991436,-31,-29,0,2,-2,-2,2,-2
3313,3313,1503599991451,-15,-10,-1,1,0,-6,-6,-3
3314,3314,1503599991460,-13,2,-11,-3,0,3,6,3
3315,3315,1503599991467,1,-1,-4,-3,1,1,1,-5
3316,3316,1503599991481,20,14,-3,1,1,0,-1,0
3317,3317,1503599991482,-17,-6,-5,-2,-6,-4,-3,-5
3318,3318,1503599991492,-18,-9,-4,-5,0,-6,9,-4
3319,3319,1503599991496,5,23,20,-5,-1,1,-1,1
3320,3320,1503599991511,-8,-13,-5,-4,-1,-3,-3,6
3321,3321,1503599991519,13,-14,-5,1,0,0,5,10
3322,3322,1503599991533,16,3,0,0,0,9,2,7
3323,3323,1503599991541,6,-1,-3,1,-1,1,-3,0
3324,3324,1503599991548,8,2,-3,2,3,3,-1,-2
3325,3325,1503599991560,-3,-11,2,2,0,-5,-7,-8
3326,3326,1503599991571,1,-6,2,-3,0,1,1,-9
3327,3327,1503599991579,-1,11,1,2,0,-1,-6,-2
3328,3328,1503599991586,11,25,5,6,0,0,0,1
3329,3329,1503599991601,25,-5,-8,-3,-3,2,5,10
3330,3330,1503599991608,-10,-10,-2,-3,0,5,0,-11
3331,3331,1503599991616,0,-5,0,-2,2,0,-2,-2
3332,3332,1503599991631,7,4,-1,1,-4,-3,-4,-8
3333,3333,1503599991639,7,-6,-5,-2,-4,0,0,-4
3334,3334,1503599991646,3,9,-5,-1,-7,-3,-3,3
3335,3335,1503599991661,-2,2,0,2,-1,0,2,7
3336,3336,1503599991668,-26,-23,-2,0,-2,-6,-4,4
3337,3337,1503599991676,-7,-16,-4,6,2,3,6,3
3338,3338,1503599991691,1,0,-2,-4,-1,-1,-2,1
3339,3339,1503599991699,-24,-8,1,0,-1,-3,-7,-7
3340,3340,1503599991706,-16,12,8,3,-3,-3,1,-5
3341,3341,1503599991725,19,6,-1,0,2,2,-1,0
3342,3342,1503599991728,-1,-14,-2,-2,0,-3,-4,-8
3343,3343,1503599991736,-2,7,2,-1,-4,-4,-1,-14
3344,3344,1503599991751,24,1,-6,-2,2,-3,-1,4
3345,3345,1503599991760,11,3,0,-2,0,-2,-2,1
3346,3346,1503599991766,-23,-9,0,11,0,-4,-5,2
3347,3347,1503599991781,-4,8,-4,-6,-2,-3,-7,-3
3348,3348,1503599991791,1,16,-5,-4,-4,3,6,12
3349,3349,1503599991797,-6,-1,4,2,-2,-6,-9,-26
3350,3350,1503599991811,10,0,1,-3,0,-1,2,0
3351,3351,1503599991819,8,-1,-2,-1,-1,1,5,8
3352,3352,1503599991827,9,-18,1,-1,0,0,-1,-5
3353,3353,1503599991841,4,-2,-4,-2,0,0,0,-1
3354,3354,1503599991848,11,1,7,4,-1,-2,0,3
3355,3355,1503599991865,4,46,5,-2,-1,-1,-2,4
3356,3356,1503599991871,-6,8,-1,-4,2,-4,-16,-8
3357,3357,1503599991879,-9,-13,-4,2,-3,1,-3,-1
3358,3358,1503599991894,-24,-7,-6,-3,-1,-1,0,-4
3359,3359,1503599991901,-2,-18,0,-1,-2,-18,0,-1
3360,3360,1503599991908,-24,-17,-5,-3,-1,-1,-3,-1
3361,3361,1503599991926,-5,-15,-7,-5,1,7,3,2
