,SampleNumber,TimeStamp,EMG1,EMG2,EMG3,EMG4,EMG5,EMG6,EMG7,EMG8
887,887,1503599967625,37,5,-1,3,5,23,57,4
888,888,1503599967640,-20,42,41,10,8,17,-2,0
889,889,1503599967647,-35,-35,-5,-4,-3,-13,-12,-30
890,890,1503599967663,-26,2,2,5,-9,-47,6,9
891,891,1503599967670,4,23,9,-2,-16,-4,-33,-10
892,892,1503599967678,-1,-21,-16,0,12,10,1,3
893,893,1503599967685,9,42,41,13,11,-7,-22,-7
894,894,1503599967700,-31,0,-3,-7,-6,24,-6,11
895,895,1503599967707,0,-42,-32,-3,-4,13,-4,7
896,896,1503599967715,14,-58,-25,-9,-6,-21,14,-1
897,897,1503599967730,-39,25,-6,-9,-21,-42,-16,1
898,898,1503599967738,15,1,14,15,9,-14,-20,-53
899,899,1503599967745,25,0,-9,-3,-2,28,36,9
900,900,1503599967761,35,-35,-4,-11,-7,21,-7,3
901,901,1503599967767,-63,-73,-9,-2,15,-9,-21,-6
902,902,1503599967775,-35,-10,8,9,8,25,3,8
903,903,1503599967791,-7,-39,-12,-8,-13,-43,-14,-22
904,904,1503599967799,-30,57,14,-4,-4,5,-7,10
905,905,1503599967805,14,4,17,-4,7,67,0,13
906,906,1503599967820,7,-34,-18,-9,0,15,-6,-8
907,907,1503599967828,35,52,24,-3,-8,1,-8,-5
908,908,1503599967842,33,-12,-3,3,12,55,10,-25
909,909,1503599967850,-1,-30,-28,-3,-14,-11,-17,-7
910,910,1503599967858,-14,-8,0,-5,-16,-23,-1,8
911,911,1503599967866,-30,-24,-39,-13,-8,-28,-16,-12
912,912,1503599967880,-19,-13,4,3,7,14,-3,16
913,913,1503599967888,5,-41,7,1,1,-18,3,8
914,914,1503599967896,10,-7,-27,-14,-8,-23,-8,0
915,915,1503599967910,17,57,8,-1,-6,-40,9,12
916,916,1503599967918,-34,-29,-22,-12,-14,-21,-4,-14
917,917,1503599967926,7,83,36,9,1,7,-6,-3
918,918,1503599967941,40,38,1,-7,2,18,-17,15
919,919,1503599967948,-11,-26,-18,-5,3,10,4,5
920,920,1503599967955,44,6,16,1,-1,13,19,5
921,921,1503599967956,-30,-39,4,5,5,-5,-10,-6
922,922,1503599967970,40,55,2,1,6,5,3,10
923,923,1503599967978,14,66,62,10,-5,-37,-2,-10
924,924,1503599967985,-68,15,19,0,-3,-39,-1,-46
925,925,1503599968001,-49,-20,16,1,-22,-11,6,-14
926,926,1503599968007,35,14,12,10,18,41,4,20
927,927,1503599968015,-33,5,-18,-8,-2,-13,15,-4
928,928,1503599968031,-33,45,49,8,-4,22,19,5
929,929,1503599968038,54,-1,-28,-9,-14,-65,-14,5
930,930,1503599968045,19,-37,-25,-5,-2,3,1,12
931,931,1503599968061,36,65,16,8,10,16,8,8
932,932,1503599968067,30,90,64,17,1,-7,-10,1
933,933,1503599968075,-10,-49,-33,-8,2,23,-3,10
934,934,1503599968092,47,-33,-23,-5,3,23,1,15
935,935,1503599968099,26,4,11,11,27,90,2,7
936,936,1503599968105,-43,-50,-23,-4,-16,-33,11,-15
937,937,1503599968120,-29,-3,-5,0,0,-15,-11,-8
938,938,1503599968128,22,-7,-17,0,8,6,-8,-5
939,939,1503599968135,-2,-6,-13,-6,-13,4,30,6
940,940,1503599968150,-49,-75,-35,-9,-4,-10,-15,-1
941,941,1503599968159,60,3,13,0,-4,-5,7,13
942,942,1503599968165,-2,-33,-22,-8,1,9,14,-19
943,943,1503599968180,-4,-4,-12,-17,2,9,-11,-16
944,944,1503599968187,-55,29,-18,-8,0,37,2,28
945,945,1503599968195,43,-9,2,2,-6,-60,8,10
946,946,1503599968210,22,7,-7,-2,7,23,-7,-3
947,947,1503599968218,-13,-7,-3,-2,-12,-54,-7,-20
948,948,1503599968227,47,40,-2,4,7,25,11,7
949,949,1503599968240,-19,17,28,9,-7,-13,4,2
950,950,1503599968247,18,100,54,16,10,1,-10,0
951,951,1503599968257,-71,-36,-19,-2,0,48,0,2
952,952,1503599968270,2,-77,-19,-4,-12,-7,39,13
953,953,1503599968278,-16,27,23,12,12,-2,-5,20
954,954,1503599968285,-20,-93,-17,-6,-1,-8,-22,-15
955,955,1503599968300,64,15,-6,3,9,-17,-37,-14
956,956,1503599968307,15,-31,-10,-2,-5,-25,-11,18
957,957,1503599968315,-36,19,3,6,2,-6,-13,-7
958,958,1503599968331,-14,-21,12,0,-8,-19,-7,-6
959,959,1503599968338,-46,-25,-23,-1,9,-1,-6,-22
960,960,1503599968345,0,54,17,0,6,2,-4,-23
961,961,1503599968366,-34,-36,-18,-17,-1,21,-71,-2
962,962,1503599968368,27,-4,10,0,-6,-16,-28,13
963,963,1503599968375,-27,14,57,5,-6,-23,32,8
964,964,1503599968390,-38,-26,-5,4,19,41,-4,-3
965,965,1503599968399,-19,48,24,2,-7,5,4,26
966,966,1503599968405,-16,-27,-14,-1,-7,-39,12,12
967,967,1503599968420,46,-11,-23,-2,-5,-24,23,-7
968,968,1503599968428,32,14,-6,-7,-22,-31,-6,2
969,969,1503599968435,12,-52,-11,-5,-16,-43,-11,-1
970,970,1503599968450,9,-15,-2,-3,-2,-4,29,-6
971,971,1503599968458,20,-10,-13,-1,0,14,26,-9
972,972,1503599968465,30,13,-9,-1,1,26,12,19
973,973,1503599968480,-27,-24,-18,-5,6,71,18,-30
974,974,1503599968487,-3,22,3,4,9,14,15,-10
975,975,1503599968497,2,-44,1,3,-4,-6,-13,5
976,976,1503599968510,-8,-18,4,-4,0,12,-2,-14
977,977,1503599968518,4,12,-4,-2,-19,-40,10,-2
978,978,1503599968525,11,18,13,8,17,21,0,-2
979,979,1503599968540,-4,127,46,3,-1,29,8,3
980,980,1503599968549,9,-6,-23,-8,-2,-14,1,5
981,981,1503599968564,10,-9,-8,-2,3,0,-8,-9
982,982,1503599968571,-9,-7,10,-1,-3,-17,0,-1
983,983,1503599968578,-4,13,-7,-4,-6,-37,-15,7
984,984,1503599968592,-13,55,-2,-5,2,-10,-23,-7
985,985,1503599968600,24,-23,-9,4,17,0,-4,4
986,986,1503599968607,36,35,-9,-5,-17,3,-29,12
987,987,1503599968622,26,9,1,-2,8,35,-2,-6
988,988,1503599968631,-15,15,12,7,9,25,-4,-2
989,989,1503599968638,35,-12,-13,-9,-4,8,-5,-1
990,990,1503599968653,-3,-21,-4,9,3,12,9,6
991,991,1503599968660,-5,14,3,1,-1,-12,0,-11
992,992,1503599968667,-10,-23,11,3,7,20,18,-4
993,993,1503599968682,-65,24,12,6,6,23,16,0
994,994,1503599968690,-46,6,10,-4,-11,-19,13,-3
995,995,1503599968699,21,-39,-23,-7,1,16,-13,-14
996,996,1503599968713,-40,-15,-2,-1,-4,-14,-7,-11
997,997,1503599968720,13,-31,1,3,0,-4,4,-5
998,998,1503599968727,29,44,-2,-8,-11,-24,-23,-11
999,999,1503599968742,-7,-22,-15,-4,2,12,3,5
1000,1000,1503599968750,2,18,17,3,2,-30,-2,1
1001,1001,1503599968758,8,95,34,8,-9,-27,9,8
1002,1002,1503599968773,22,-29,-8,-3,-3,-12,-10,2
1003,1003,1503599968788,7,-15,-15,-8,-7,3,-5,5
1004,1004,1503599968789,17,-4,-1,-1,-1,1,-10,1
1005,1005,1503599968802,-11,-3,-5,-1,-1,3,1,4
1006,1006,1503599968810,21,-3,-14,-4,-5,-13,-1,6
1007,1007,1503599968818,-17,14,13,0,-10,-16,-5,8
1008,1008,1503599968834,-1,-9,-5,-6,-9,6,10,-1
1009,1009,1503599968843,2,8,2,5,6,3,-3,-4
1010,1010,1503599968848,-30,-2,4,7,-3,17,3,6
1011,1011,1503599968866,-30,-63,-13,-4,5,0,19,8
1012,1012,1503599968870,5,12,-22,-10,0,-1,0,-14
1013,1013,1503599968878,8,-17,-1,12,6,11,9,-2
1014,1014,1503599968892,4,6,13,7,-4,19,0,9
1015,1015,1503599968909,-7,-7,14,6,12,18,-3,0
1016,1016,1503599968923,8,25,5,-3,0,-32,2,5
1017,1017,1503599968932,13,3,0,-2,4,0,-7,-1
1018,1018,1503599968938,29,20,1,-2,3,16,8,-20
1019,1019,1503599968953,26,86,19,1,4,-1,-8,-3
1020,1020,1503599968960,18,-3,-14,-6,-3,-13,-20,2
1021,1021,1503599968969,-6,-66,-25,-3,-5,-1,3,-8
1022,1022,1503599968982,3,-13,16,9,9,12,-3,8
1023,1023,1503599968990,7,11,-6,-1,7,2,-1,2
1024,1024,1503599969000,-23,-39,-11,-4,-4,7,-7,-4
1431,1431,1503599973010,28,24,9,5,7,-1,-29,-27
1432,1432,1503599973018,12,2,6,-1,0,-10,4,16
1433,1433,1503599973032,38,20,-2,-2,0,6,9,16
1434,1434,1503599973040,-9,4,-1,-2,-4,-8,28,0
1435,1435,1503599973048,-77,-25,-11,-2,5,10,9,6
1436,1436,1503599973070,-2,0,-4,-5,-6,12,-10,-8
1437,1437,1503599973071,15,26,2,0,0,-2,2,-9
1438,1438,1503599973078,-6,24,-6,-1,-2,-1,-1,4
1439,1439,1503599973095,-20,-18,-6,-1,-1,1,-8,7
1440,1440,1503599973100,-11,-7,-3,-3,-3,-24,-10,2
1441,1441,1503599973107,-3,-6,0,-3,1,-8,2,8
1442,1442,1503599973123,-1,5,-3,-1,-10,1,-2,-9
1443,1443,1503599973130,-31,-33,-11,-3,-7,29,4,11
1444,1444,1503599973138,24,4,3,7,5,-6,-2,-2
1445,1445,1503599973152,28,-12,0,1,-2,-15,2,-6
1446,1446,1503599973163,9,-9,-3,-6,0,2,-2,14
1447,1447,1503599973167,17,15,7,4,-3,-8,-17,0
1448,1448,1503599973183,-14,-8,-4,-2,2,12,10,11
1449,1449,1503599973190,31,5,5,-1,1,-3,5,1
1450,1450,1503599973199,6,-22,-2,0,4,-16,2,-5
1451,1451,1503599973212,-11,11,-4,-8,-3,-3,-3,-17
1452,1452,1503599973220,-50,-2,2,-3,-2,-12,-10,9
1453,1453,1503599973235,-20,3,-2,-1,0,-4,3,3
1454,1454,1503599973243,8,-15,-7,-4,0,1,-14,-2
1455,1455,1503599973252,15,10,0,-4,1,-2,1,0
1456,1456,1503599973265,-7,8,-8,2,-1,10,2,-2
1457,1457,1503599973272,6,4,7,5,-2,-5,-1,1
1458,1458,1503599973280,-10,-36,-10,0,2,-2,-12,-7
1459,1459,1503599973296,-10,7,4,-2,-4,-8,-7,-8
1460,1460,1503599973303,-1,16,20,4,-1,-5,6,5
1461,1461,1503599973310,5,-14,4,1,-1,-3,1,10
1462,1462,1503599973325,-37,-13,-2,-3,-1,0,-8,-11
1463,1463,1503599973333,0,-14,-7,-2,2,15,7,4
1464,1464,1503599973340,1,-13,2,1,-3,-6,2,-21
1465,1465,1503599973355,15,14,-6,-3,0,2,1,1
1466,1466,1503599973363,-18,1,7,4,5,22,3,-1
1467,1467,1503599973370,11,-15,-7,-1,-5,-8,-3,0
1468,1468,1503599973385,11,4,-5,-1,-5,-6,-4,25
1469,1469,1503599973392,14,3,-1,0,2,20,-11,-3
1470,1470,1503599973400,16,16,-3,-4,-8,-3,1,9
1471,1471,1503599973415,1,-11,-2,0,1,-16,-17,-10
1472,1472,1503599973423,-1,0,-6,-3,7,11,8,14
1473,1473,1503599973430,-12,-10,-10,-1,-3,-6,-7,-3
1474,1474,1503599973445,-36,-8,-10,-5,-1,-6,4,2
1475,1475,1503599973452,-32,-9,14,4,-3,-16,10,-12
1476,1476,1503599973460,40,15,4,-1,-10,-8,-8,-4
1477,1477,1503599973475,19,-13,-4,-3,5,1,18,24
1478,1478,1503599973483,40,36,6,3,3,-28,6,13
1479,1479,1503599973490,-24,12,6,0,-11,4,8,-26
1480,1480,1503599973506,-37,-24,-15,-7,-2,8,-3,-18
1481,1481,1503599973512,-38,1,5,4,3,-7,5,-14
1482,1482,1503599973520,11,22,-5,-3,-6,-6,-13,-23
1483,1483,1503599973536,0,-6,-7,-3,-3,6,3,24
1484,1484,1503599973543,-8,25,9,-1,2,-15,-8,0
1485,1485,1503599973549,-19,6,-14,-5,3,-5,-5,-2
1486,1486,1503599973565,7,-34,-18,-9,-8,1,5,-15
1487,1487,1503599973572,-3,25,22,4,3,1,-14,-7
1488,1488,1503599973573,21,10,2,1,0,-3,3,6
1489,1489,1503599973587,0,23,16,6,4,12,-4,5
1490,1490,1503599973594,18,3,-1,3,0,-1,-1,-5
1491,1491,1503599973603,11,-22,13,6,1,8,9,15
1492,1492,1503599973610,1,-12,12,6,7,3,-9,-4
1493,1493,1503599973625,-28,47,18,5,0,-3,0,-1
1494,1494,1503599973632,14,1,-10,-10,-3,-22,-23,2
1495,1495,1503599973640,-71,-41,-10,-2,-4,0,2,-7
1496,1496,1503599973655,-20,6,-5,-4,2,3,2,-20
1497,1497,1503599973663,-8,8,30,5,-3,7,0,-3
1498,1498,1503599973670,-2,8,0,-3,-5,-1,-1,2
1499,1499,1503599973685,-26,9,-7,-3,4,8,4,-3
1500,1500,1503599973692,8,2,11,3,-1,7,12,10
1501,1501,1503599973701,49,1,6,3,6,-8,-4,-5
1502,1502,1503599973716,19,39,-2,-2,-1,-18,-5,4
1503,1503,1503599973723,-28,-3,33,5,3,0,18,8
1504,1504,1503599973732,12,8,0,2,0,12,13,8
1505,1505,1503599973745,50,-12,-19,-2,2,7,-2,1
1506,1506,1503599973752,-19,-24,-7,-6,-1,14,4,13
1507,1507,1503599973760,-22,-44,-29,-6,-1,-14,-14,-12
1508,1508,1503599973775,25,-5,-8,1,2,-4,-6,3
1509,1509,1503599973783,30,-12,-26,-6,-2,2,-2,2
1510,1510,1503599973790,23,19,15,-2,-1,5,2,3
1511,1511,1503599973805,27,1,-14,-2,-1,-11,0,4
1512,1512,1503599973812,1,56,15,1,-2,-5,-19,6
1513,1513,1503599973820,13,23,-9,-5,-6,-10,-11,1
1514,1514,1503599973835,-24,-23,-3,2,2,-4,-1,-8
1515,1515,1503599973846,21,7,17,5,-2,1,-7,-13
1516,1516,1503599973855,8,-8,8,9,14,36,4,-16
1517,1517,1503599973869,-50,-5,-1,-6,-3,25,-5,-2
1518,1518,1503599973872,-31,-14,-15,-6,-5,-1,2,-20
1519,1519,1503599973880,28,-18,3,-1,2,3,0,-3
1520,1520,1503599973895,-24,-18,-15,-5,-9,-13,3,13
1521,1521,1503599973911,-3,5,3,-3,-5,-22,-18,-2
1522,1522,1503599973925,-2,1,6,1,0,2,3,5
1523,1523,1503599973933,-18,-17,4,-5,-4,8,-4,-1
1524,1524,1503599973942,-8,-10,-5,0,5,-1,-4,-9
1525,1525,1503599973955,1,-13,-21,-3,-8,-2,7,8
1526,1526,1503599973963,18,-7,-13,0,3,20,13,0
1527,1527,1503599973970,-1,-12,5,2,6,7,2,11
1528,1528,1503599973985,-42,-31,-10,-5,-7,-19,-13,4
1529,1529,1503599973992,-45,-14,3,1,2,1,-13,-14
1530,1530,1503599974000,-6,-25,-16,-4,-8,-19,-1,6
1531,1531,1503599974014,40,20,3,1,1,-2,2,7
1532,1532,1503599974030,-7,-26,-9,2,12,11,5,-28
1533,1533,1503599974031,24,27,15,3,1,-8,4,-2
1534,1534,1503599974045,10,-1,-8,-4,-3,-13,-2,3
1535,1535,1503599974052,12,-8,-5,-1,-4,8,-1,1
1536,1536,1503599974060,-2,4,4,5,2,7,-8,3
1537,1537,1503599974075,-11,-7,-2,-10,-7,-1,-4,3
1538,1538,1503599974082,7,-7,-2,0,2,-3,21,-22
1539,1539,1503599974083,11,20,9,3,-1,8,-5,-4
1540,1540,1503599974090,5,-5,-3,-3,0,7,15,10
1541,1541,1503599974105,9,19,0,-5,-12,14,13,5
1542,1542,1503599974112,1,-14,-6,-1,-7,-11,-11,5
1543,1543,1503599974120,11,-14,-2,-3,0,3,7,2
1544,1544,1503599974135,19,-3,-5,9,7,3,7,0
1545,1545,1503599974143,0,24,4,-3,-5,-14,-11,-4
1546,1546,1503599974156,-22,13,8,3,2,-9,-10,-35
1547,1547,1503599974164,13,3,8,4,3,-8,-15,-19
1548,1548,1503599974172,-3,0,0,0,5,11,8,-12
1549,1549,1503599974187,-50,-17,-1,-3,7,12,7,2
1550,1550,1503599974195,-18,-3,-6,-3,-1,-4,2,-4
1551,1551,1503599974203,-45,-28,2,1,-3,-6,8,11
1552,1552,1503599974216,10,-8,-3,-1,-3,3,5,17
1553,1553,1503599974225,4,2,1,2,-3,-8,17,-4
1554,1554,1503599974232,-25,-12,-15,-9,-3,11,-3,-19
1555,1555,1503599974247,25,3,-3,2,0,6,1,-1
1556,1556,1503599974255,6,-1,2,-7,-7,-7,-12,10
1557,1557,1503599974263,30,12,1,-2,1,6,2,-2
1558,1558,1503599974277,6,-5,8,3,1,-9,1,-3
1559,1559,1503599974285,10,26,-1,2,-6,-31,17,8
1560,1560,1503599974292,26,40,19,7,1,-22,3,5
1561,1561,1503599974307,-21,-22,-10,-2,7,14,-11,-7
1562,1562,1503599974314,12,-1,10,2,1,-4,-3,-3
1563,1563,1503599974323,-6,12,0,-4,0,7,-9,2
1564,1564,1503599974336,-41,-5,-3,0,0,6,-5,-8
1565,1565,1503599974346,12,-10,-17,-8,-2,-3,-2,17
1566,1566,1503599974353,22,-15,-10,-2,0,3,-18,6
1567,1567,1503599974369,-34,-4,-2,-3,-11,-13,4,-6
1568,1568,1503599974375,4,8,3,1,-3,-12,9,-2
1569,1569,1503599974383,23,-15,0,0,3,4,-12,-23
1570,1570,1503599974397,-6,5,-1,-1,7,20,1,-7
1571,1571,1503599974408,17,-13,1,5,0,10,2,-2
1572,1572,1503599974413,17,3,0,1,0,-3,-43,-1
1573,1573,1503599974427,12,38,15,2,3,-1,-6,2
1574,1574,1503599974438,12,23,7,0,-2,0,35,5
1575,1575,1503599974443,-15,1,1,0,1,19,-17,-17
1576,1576,1503599974457,-5,-12,-3,-1,5,1,1,-12
1577,1577,1503599974465,-9,-7,-9,-5,0,-3,22,16
1578,1578,1503599974473,10,-7,-23,-11,-8,-10,-7,-1
1579,1579,1503599974488,10,2,-6,-1,-2,-1,-10,-1
1580,1580,1503599974495,-1,-6,-10,-1,2,-2,4,-2
1581,1581,1503599974504,-30,-10,-3,-13,-4,-15,-5,15
1582,1582,1503599974517,0,-14,-3,1,-4,-2,9,9
1583,1583,1503599974532,1,8,4,-1,-3,-4,-2,-17
1584,1584,1503599974533,-13,-3,4,0,3,1,-7,-2
1585,1585,1503599974547,-55,-25,-7,-3,-3,2,4,6
1586,1586,1503599974555,-20,-20,2,-1,-3,4,-1,-2
1587,1587,1503599974563,19,31,-2,-3,-10,-6,4,4
1588,1588,1503599974576,-2,1,0,1,-4,-3,6,-4
1589,1589,1503599974585,-1,7,13,2,0,22,11,3
1590,1590,1503599974592,14,5,8,3,-2,8,13,-4
1591,1591,1503599974608,19,25,17,6,-2,-5,5,8
1592,1592,1503599974615,-18,-19,-11,-6,0,6,0,-11
1593,1593,1503599974623,-8,8,3,0,3,-2,-29,-9
1594,1594,1503599974638,-9,-1,-4,-2,-6,-12,-2,9
1595,1595,1503599974645,-5,-9,-9,0,4,-3,15,-4
1596,1596,1503599974652,-11,-5,-4,-4,6,15,-4,3
1597,1597,1503599974667,20,-12,0,4,1,9,-7,-13
1598,1598,1503599974675,-4,-1,4,5,-1,-1,11,1
1599,1599,1503599974683,-29,-27,-3,1,2,-4,-8,-10
1600,1600,1503599974696,27,6,-13,-7,-14,-10,0,-6
1601,1601,1503599974706,-1,7,8,2,-2,-4,3,6
1602,1602,1503599974712,-7,3,2,-1,2,-1,-3,0
1603,1603,1503599974728,-2,0,-3,-2,-2,-11,3,14
1604,1604,1503599974734,20,4,4,3,-1,13,8,0
1605,1605,1503599974735,-5,28,7,-1,-1,2,-14,-2
1606,1606,1503599974743,13,22,5,-7,-2,-12,-2,-4
1607,1607,1503599974756,-2,-5,2,-2,-4,-18,-6,15
1608,1608,1503599974765,-7,-10,-7,-3,3,2,5,-4
1609,1609,1503599974772,-3,10,7,3,-1,-18,-7,-7
1610,1610,1503599974787,12,20,-9,1,0,-5,-1,-2
1611,1611,1503599974795,-3,-10,-9,-1,2,2,-1,-11
1612,1612,1503599974803,-4,-10,2,-1,-3,-11,2,12
1613,1613,1503599974817,-9,-11,-4,-5,-2,1,-3,10
1614,1614,1503599974825,-29,-13,-3,2,0,10,-4,-3
1615,1615,1503599974840,21,16,2,-3,-13,-16,-12,-8
1616,1616,1503599974848,11,3,-3,-2,-2,-4,4,3
1617,1617,1503599974855,-8,-3,0,2,4,12,8,-6
1618,1618,1503599974863,5,-8,-4,-3,-3,7,-4,-20
1619,1619,1503599974878,2,-14,-9,-3,6,34,-1,16
1620,1620,1503599974885,-6,1,-2,1,-4,-6,0,2
1621,1621,1503599974892,-14,33,8,2,2,9,2,-6
1622,1622,1503599974907,19,9,8,0,3,1,-8,6
1623,1623,1503599974915,-11,-29,0,-2,-9,10,2,-5
1624,1624,1503599974923,-15,-13,-2,0,3,6,0,1
1625,1625,1503599974937,-11,11,11,1,9,-6,21,0
1626,1626,1503599974946,33,24,6,1,-3,5,4,8
1627,1627,1503599974952,11,-9,-5,-8,-3,-15,-4,2
1628,1628,1503599974967,-8,-5,7,3,-3,-27,-1,-9
1629,1629,1503599974975,-10,-20,-4,-1,1,-2,-13,-3
1630,1630,1503599974983,5,-27,-12,-6,1,24,8,2
1631,1631,1503599974998,16,7,3,4,-9,-8,-5,-6
1632,1632,1503599975008,6,1,-1,4,3,8,-2,-8
1633,1633,1503599975012,-12,-14,-8,2,4,0,2,-3
1634,1634,1503599975027,3,-6,-8,-4,-4,-2,-8,-10
1635,1635,1503599975035,2,20,5,1,2,-7,5,-2
1636,1636,1503599975043,9,2,-10,-1,2,-5,14,7
1637,1637,1503599975057,-1,-17,-6,-2,1,4,-6,-5
1638,1638,1503599975065,-16,-9,1,2,2,-2,9,0
1639,1639,1503599975074,24,-18,-10,-1,0,9,16,-8
1640,1640,1503599975087,14,-8,-3,-1,-4,-4,-5,-2
1641,1641,1503599975094,-3,-5,11,5,9,7,3,7
1642,1642,1503599975110,1,16,6,-4,-2,-6,-17,-7
1643,1643,1503599975117,25,27,-6,-6,-5,-10,-18,2
1644,1644,1503599975125,-8,7,-4,-2,2,9,-3,7
1645,1645,1503599975154,21,1,-4,-1,-1,-7,-1,-1
1646,1646,1503599975155,6,0,-14,-3,-5,-9,-3,2
1647,1647,1503599975156,-46,-11,-2,0,5,-7,-4,-13
1648,1648,1503599975170,-15,7,0,-2,8,-15,-20,-9
1649,1649,1503599975177,-1,16,7,1,2,1,2,2
1650,1650,1503599975185,-24,-24,3,2,1,-1,-11,9
1651,1651,1503599975199,-1,0,-6,-3,-7,-14,6,14
1652,1652,1503599975209,-15,0,9,1,-2,2,-1,-1
1653,1653,1503599975215,7,-16,-7,2,-3,8,1,2
1654,1654,1503599975230,8,59,20,1,-3,5,8,-2
1655,1655,1503599975237,7,14,4,1,-2,-2,-5,-5
1656,1656,1503599975245,7,-6,-3,-3,-8,-7,-7,2
1657,1657,1503599975259,-8,-2,-2,-1,-4,2,3,-4
1658,1658,1503599975267,-7,-46,-14,-2,-2,6,12,-2
1659,1659,1503599975276,3,-6,7,-1,-4,-18,-11,3
1660,1660,1503599975290,8,11,3,-2,-2,-6,-1,-5
1661,1661,1503599975305,-9,-4,10,1,3,2,-3,-4
1662,1662,1503599975306,0,29,-3,-6,-4,-1,1,3
1663,1663,1503599975319,5,-4,-9,-4,2,2,0,9
1664,1664,1503599975327,5,-12,-2,8,4,-5,0,-13
1665,1665,1503599975335,11,3,-9,-3,-2,0,0,2
1666,1666,1503599975350,-20,-35,1,2,0,0,-10,-17
1667,1667,1503599975357,-6,-10,-2,0,0,7,-1,4
1668,1668,1503599975366,16,37,4,1,0,8,10,18
1669,1669,1503599975379,2,25,19,2,0,1,-7,-6
1670,1670,1503599975387,-8,3,-4,-3,-5,-4,2,2
1671,1671,1503599975395,4,19,1,-7,-3,-17,5,1
1672,1672,1503599975411,-7,-17,-5,-2,2,-9,33,-1
1673,1673,1503599975418,5,10,-1,-1,0,1,3,-4
1674,1674,1503599975425,33,-10,-7,-3,-1,3,3,0
1675,1675,1503599975439,-13,19,6,4,-2,8,6,-4
1676,1676,1503599975447,-38,-34,-10,-3,-2,6,-12,3
1677,1677,1503599975455,2,-22,-2,2,-3,4,-4,0
1678,1678,1503599975470,-12,1,4,-3,-6,-2,7,5
1679,1679,1503599975478,15,29,3,-1,4,-9,-4,3
1680,1680,1503599975486,17,14,3,1,5,3,-10,-17
1681,1681,1503599975499,-16,-16,-8,-3,-5,8,-4,-12
1682,1682,1503599975507,-3,0,-6,-3,3,14,3,3
1683,1683,1503599975515,-1,2,0,6,-1,1,-3,2
1684,1684,1503599975530,-10,-6,-6,-4,-4,-10,-11,5
1685,1685,1503599975537,-10,-24,-9,-4,-1,-5,-3,-8
1686,1686,1503599975547,-1,10,0,2,0,0,5,9
1687,1687,1503599975559,-28,-33,-6,-4,-3,-10,-8,9
1688,1688,1503599975567,-5,-5,1,1,0,-3,-8,2
1689,1689,1503599975575,-7,-17,-2,0,0,-9,4,-2
1690,1690,1503599975590,-13,-2,0,0,0,14,7,2
1691,1691,1503599975597,-33,-16,-2,2,4,5,3,0
1692,1692,1503599975605,9,7,1,0,-4,-13,-3,-1
1693,1693,1503599975619,27,25,6,3,2,1,0,-5
1694,1694,1503599975627,3,0,-4,-8,5,-1,-2,1
1695,1695,1503599975635,-3,-25,-17,-7,-1,0,-21,-9
1696,1696,1503599975650,8,-9,-3,-2,1,4,-4,-10
1697,1697,1503599975657,22,15,3,-1,-4,3,3,3
1698,1698,1503599975665,-14,-6,-3,1,-2,-17,-6,-9
1699,1699,1503599975681,-3,16,6,2,-2,-5,4,4
1700,1700,1503599975688,-4,-6,0,1,-4,-9,-5,2
1701,1701,1503599975695,5,27,3,-5,-3,-1,-1,-1
1702,1702,1503599975710,16,5,0,0,-9,3,3,7
1703,1703,1503599975718,11,-3,-10,-2,-1,-1,8,2
1704,1704,1503599975725,-2,7,3,0,-3,-18,-16,-6
1705,1705,1503599975739,-2,-5,5,7,3,1,-3,-3
1706,1706,1503599975747,11,-25,-2,4,4,3,2,5
1707,1707,1503599975754,1,32,5,0,0,-16,-14,-6
1708,1708,1503599975755,-21,-16,-8,-4,-2,25,21,-5
1709,1709,1503599975776,-1,2,1,2,-1,0,24,-9
1710,1710,1503599975784,9,13,17,3,0,3,-2,-3
1711,1711,1503599975786,-19,17,-6,-5,1,0,-20,-5
1712,1712,1503599975799,9,-5,-10,-6,-9,-6,-10,-3
1713,1713,1503599975807,-8,-16,5,2,-4,-11,-8,4
1714,1714,1503599975815,-17,-22,-8,-11,1,-1,-5,1
1715,1715,1503599975829,21,-6,-5,-3,0,2,-1,-2
1716,1716,1503599975837,11,5,1,1,-2,-12,9,8
1717,1717,1503599975847,-14,-6,3,0,0,0,1,8
1718,1718,1503599975859,-10,1,-8,-2,-4,-9,1,4
1719,1719,1503599975867,12,16,-3,1,0,6,3,7
1720,1720,1503599975875,5,16,-6,1,-8,-24,-2,2
1721,1721,1503599975889,-4,10,7,0,-5,-14,-30,6
1722,1722,1503599975890,-4,-4,4,-1,-2,8,23,-1
1723,1723,1503599975897,6,5,-2,2,4,-3,-1,-6
1724,1724,1503599975905,-32,-10,-14,-3,-3,-19,-5,5
1725,1725,1503599975919,-15,-13,-3,-4,4,9,-8,3
1726,1726,1503599975927,14,1,-4,0,-1,-9,6,3
1727,1727,1503599975928,17,12,-1,-1,0,8,-9,-7
1728,1728,1503599975934,-8,-17,12,3,2,-8,1,4
1729,1729,1503599975950,-7,-25,-17,-6,-1,0,-2,-3
1730,1730,1503599975957,27,24,1,-1,-2,7,-16,-1
1731,1731,1503599975965,-4,0,-11,-2,3,2,-5,-7
1732,1732,1503599975981,-2,7,2,-1,-4,-5,22,-5
1733,1733,1503599975994,-16,-5,11,1,-7,10,12,-10
1734,1734,1503599975995,2,2,8,11,-1,-21,-5,0
1735,1735,1503599976009,9,16,-2,-6,0,-10,-8,3
1736,1736,1503599976017,-10,-17,-8,-3,-3,7,-3,-7
1737,1737,1503599976032,21,37,11,5,2,12,-2,6
1738,1738,1503599976039,-14,-26,-6,-4,-1,4,-2,-3
1739,1739,1503599976048,-4,-22,-2,-4,-1,2,3,-4
1740,1740,1503599976061,2,-4,1,1,4,7,2,-1
1741,1741,1503599976069,-1,-1,1,8,-4,-13,-7,-3
1742,1742,1503599976077,-3,-1,-5,-6,-9,-29,5,4
1743,1743,1503599976093,3,14,10,-1,0,1,-14,4
1744,1744,1503599976099,-7,3,6,7,6,5,-1,3
1745,1745,1503599976107,4,-2,3,1,2,-8,3,3
1746,1746,1503599976122,7,-24,-14,-6,1,10,1,-4
1747,1747,1503599976130,23,-6,4,-4,-2,7,-2,-4
1748,1748,1503599976137,-4,2,13,4,2,7,1,-6
1749,1749,1503599976152,-6,8,-5,5,4,3,5,0
1750,1750,1503599976159,-1,5,-2,-1,-6,-1,-1,-1
1751,1751,1503599976167,-22,-28,-3,-2,1,1,-5,-4
1752,1752,1503599976182,6,10,0,2,1,-8,11,8
1753,1753,1503599976183,5,9,-2,1,4,12,-6,-1
1754,1754,1503599976190,-1,-26,-13,-4,4,-4,-2,0
1755,1755,1503599976191,-19,25,11,-6,-10,-4,-10,-9
1756,1756,1503599976197,-8,-7,-5,-3,-1,-18,-9,1
1757,1757,1503599976212,-4,-9,-5,1,2,-3,1,-3
1758,1758,1503599976219,-4,3,11,2,0,5,-3,5
1759,1759,1503599976227,8,1,-2,9,4,5,4,-6
1760,1760,1503599976241,-1,18,1,0,5,22,4,1
1761,1761,1503599976255,1,-8,-3,-2,0,4,-5,2
1762,1762,1503599976258,25,30,-7,-4,-8,-1,-5,-3
1763,1763,1503599976273,-4,-11,-7,-9,-4,-11,13,10
1764,1764,1503599976279,-9,-11,-6,-4,0,-5,-1,0
1765,1765,1503599976288,9,-2,-11,-2,-1,-2,-2,3
1766,1766,1503599976302,-2,-6,-2,-1,-6,6,10,4
1767,1767,1503599976310,7,23,7,-2,-2,-7,-3,-17
1768,1768,1503599976318,41,17,-2,-7,0,-2,-3,0
1769,1769,1503599976332,-4,-4,-1,-3,1,-8,-7,4
1770,1770,1503599976339,-3,-15,-7,3,6,14,0,-1
1771,1771,1503599976347,-10,-1,0,2,0,2,-3,-6
2667,2667,1503599985153,10,-5,0,-1,12,20,13,8
2668,2668,1503599985159,-46,-23,1,-2,2,38,13,10
2669,2669,1503599985174,-25,-4,11,7,4,-1,-5,-2
2670,2670,1503599985182,-34,2,2,2,9,0,-19,-8
2671,2671,1503599985190,-14,-11,-6,-3,8,24,-8,-8
2672,2672,1503599985203,3,30,1,-3,-3,5,-7,-7
2673,2673,1503599985212,25,27,8,1,-7,-45,9,1
2674,2674,1503599985219,-31,13,-3,-1,-1,-5,20,-4
2675,2675,1503599985234,-10,-4,1,-1,-4,20,9,3
2676,2676,1503599985242,3,31,14,5,0,-10,-2,-7
2677,2677,1503599985255,-72,-16,-8,-1,-2,7,2,-5
2678,2678,1503599985264,7,-18,-9,-3,-4,5,-2,-11
2679,2679,1503599985272,16,11,16,-1,2,34,0,-3
2680,2680,1503599985280,-13,-15,-8,-5,-2,-2,-16,-5
2681,2681,1503599985294,12,3,5,3,3,-3,1,2
2682,2682,1503599985302,12,-7,12,1,-2,-14,6,7
2683,2683,1503599985310,5,13,-4,6,-2,-9,-3,4
2684,2684,1503599985324,9,-13,-5,-2,-2,-10,-4,-15
2685,2685,1503599985332,3,7,-6,-4,1,1,2,-5
2686,2686,1503599985352,26,-3,-10,-5,-11,11,6,-4
2687,2687,1503599985355,-1,-15,2,1,-1,-15,-2,2
2688,2688,1503599985362,15,10,-2,2,0,-8,6,1
2689,2689,1503599985377,2,-26,-11,-5,-3,-5,-6,-4
2690,2690,1503599985384,-8,-27,-7,-3,-2,-1,-9,5
2691,2691,1503599985392,12,-13,-8,-1,-3,-23,-1,8
2692,2692,1503599985406,-10,5,0,7,4,4,-1,7
2693,2693,1503599985416,1,57,14,-4,-11,-36,-13,-6
2694,2694,1503599985422,8,0,7,2,6,9,-9,-3
2695,2695,1503599985436,-7,1,18,7,2,17,9,7
2696,2696,1503599985447,-15,-32,-18,-7,-1,-17,-16,2
2697,2697,1503599985448,40,36,16,1,0,6,4,17
2698,2698,1503599985453,37,19,2,3,5,11,-3,-7
2699,2699,1503599985466,-15,-17,-7,-1,3,-5,4,5
2700,2700,1503599985474,-27,-28,-15,-13,-15,6,3,0
2701,2701,1503599985482,5,-4,-6,-1,-5,15,4,1
2702,2702,1503599985496,11,-9,-9,0,1,11,-8,15
2703,2703,1503599985504,-30,-4,-4,-4,-1,6,13,-19
2704,2704,1503599985514,-13,-16,0,9,2,3,4,-3
2705,2705,1503599985526,-12,-2,3,3,10,32,0,2
2706,2706,1503599985534,12,8,0,0,5,10,33,-4
2707,2707,1503599985548,4,-37,-20,-4,-1,-16,3,11
2708,2708,1503599985557,-3,8,4,3,-5,13,16,-8
2709,2709,1503599985571,-1,-14,-1,-1,-4,-5,-7,-10
2710,2710,1503599985573,-28,0,5,-3,-1,-12,-17,-8
2711,2711,1503599985586,7,8,0,-1,0,-11,-5,-27
2712,2712,1503599985594,-27,-9,-9,-4,0,-7,5,9
2713,2713,1503599985602,4,-9,3,-3,-10,-18,-13,7
2714,2714,1503599985617,1,-19,-10,-6,8,61,-3,-4
2715,2715,1503599985624,39,12,3,0,-20,-72,-5,-12
2716,2716,1503599985632,-33,-48,-1,0,-4,-2,-35,-23
2717,2717,1503599985651,-16,-8,-3,5,4,6,30,18
2718,2718,1503599985655,10,4,5,-2,-11,-53,28,3
2719,2719,1503599985662,-18,0,2,-2,5,-6,-4,-9
2720,2720,1503599985677,27,-3,-8,-3,-1,-15,21,4
2721,2721,1503599985688,-2,25,2,-2,-20,-77,-30,-12
2722,2722,1503599985692,9,22,17,7,13,14,3,0
2723,2723,1503599985706,17,20,3,-2,3,-3,-2,6
2724,2724,1503599985716,6,-12,-10,-3,-1,-9,-15,9
2725,2725,1503599985722,-2,-1,7,6,12,32,13,22
2726,2726,1503599985737,-72,-1,-10,-3,1,2,1,-21
2727,2727,1503599985744,15,0,-8,-4,3,38,19,11
2728,2728,1503599985755,45,14,-8,-1,-1,14,-28,6
2729,2729,1503599985766,13,15,3,-6,2,11,-11,4
2730,2730,1503599985774,8,-3,-12,-4,-5,-18,-4,3
2731,2731,1503599985782,7,12,5,-3,-8,-7,9,0
2732,2732,1503599985797,-14,-32,-2,0,-2,-1,5,-8
2733,2733,1503599985804,2,-5,-4,0,3,11,8,1
2734,2734,1503599985812,-3,52,14,4,-7,-40,-15,9
2735,2735,1503599985826,5,-8,-2,-5,3,37,27,2
2736,2736,1503599985834,29,-2,1,4,5,1,20,-17
2737,2737,1503599985842,-5,-15,-10,-3,-3,-20,-1,16
2738,2738,1503599985857,-2,0,14,4,7,4,-19,-11
2739,2739,1503599985864,-23,1,-3,-1,0,21,-17,-11
2740,2740,1503599985872,-4,-4,-1,-1,-1,3,-2,-2
2741,2741,1503599985886,-4,-12,-11,-6,-5,-3,-7,-1
2742,2742,1503599985894,29,5,3,-1,-2,8,15,13
2743,2743,1503599985902,4,8,-1,-4,-3,-10,-7,9
2744,2744,1503599985917,-29,0,10,-3,-4,-4,-5,6
2745,2745,1503599985925,-21,-18,-7,-1,4,19,-6,-7
2746,2746,1503599985932,14,-12,-26,-9,-5,2,-35,-12
2747,2747,1503599985946,24,-2,1,9,6,17,7,-17
2748,2748,1503599985954,-19,-11,-9,1,-1,0,7,12
2749,2749,1503599985961,41,10,7,0,-2,-7,-8,3
2750,2750,1503599985976,-30,-29,-11,-3,7,24,3,-14
2751,2751,1503599985985,-68,-11,-3,-4,-4,-22,-17,-7
2752,2752,1503599985992,21,37,19,4,-3,-21,24,4
2753,2753,1503599986006,20,2,-2,1,2,-14,38,12
2754,2754,1503599986014,23,46,18,13,1,0,-8,2
2755,2755,1503599986022,4,5,18,1,-10,-21,-16,9
2756,2756,1503599986036,-14,-11,1,-5,-3,-1,8,-1
2757,2757,1503599986044,10,-4,-10,0,2,2,-20,1
2758,2758,1503599986052,22,16,-5,-3,-4,-23,-14,5
2759,2759,1503599986066,-24,-20,-2,-6,5,33,8,-23
2760,2760,1503599986074,4,-29,-13,-6,3,33,16,9
2761,2761,1503599986081,-28,-39,-12,-3,-8,-3,17,0
2762,2762,1503599986096,-46,-16,-1,2,4,5,18,3
2763,2763,1503599986104,-28,-41,3,6,5,0,-39,-67
2764,2764,1503599986112,-14,-17,-5,-13,-4,-10,-11,-4
2765,2765,1503599986126,-22,40,7,1,12,13,13,28
2766,2766,1503599986134,20,7,-14,-7,-3,-15,-2,-1
2767,2767,1503599986142,10,17,8,5,0,-2,-5,17
2768,2768,1503599986157,20,32,26,5,-2,17,-14,-7
2769,2769,1503599986164,16,48,10,5,-10,-18,-9,-8
2770,2770,1503599986172,-46,7,-4,-1,-3,2,24,-12
2771,2771,1503599986187,35,-19,-12,-4,9,24,14,6
2772,2772,1503599986194,-4,-14,-6,-1,3,30,-4,-12
2773,2773,1503599986202,-7,12,-1,-3,-3,-6,49,36
2774,2774,1503599986219,-33,-2,-5,6,1,-8,-26,-16
2775,2775,1503599986225,-25,3,4,-2,4,-6,-21,3
2776,2776,1503599986232,52,-23,0,1,8,-1,5,16
2777,2777,1503599986246,3,-37,-12,-1,-1,1,-4,-12
2778,2778,1503599986254,7,28,11,3,7,10,-11,-10
2779,2779,1503599986255,-20,-17,-6,-1,-3,-20,-7,-1
2780,2780,1503599986268,-37,-19,-10,-1,-7,7,10,15
2781,2781,1503599986269,21,17,7,0,-6,-6,-10,-20
2782,2782,1503599986277,8,13,-4,-2,-1,9,27,25
2783,2783,1503599986286,-9,15,6,-1,-9,-27,0,6
2784,2784,1503599986300,1,5,9,1,-3,-2,-27,-12
2785,2785,1503599986306,-15,24,-4,0,3,14,6,-11
2786,2786,1503599986314,-8,0,1,-5,-10,-4,-19,-17
2787,2787,1503599986328,-15,0,-4,-3,5,1,-15,-1
2788,2788,1503599986336,68,10,-3,0,2,8,-6,12
2789,2789,1503599986344,26,4,-1,2,1,-5,20,-6
2790,2790,1503599986359,-25,-40,-4,-3,-3,-17,2,-3
2791,2791,1503599986366,5,-4,-7,-5,7,41,-9,17
2792,2792,1503599986374,29,14,8,3,3,-4,-19,6
2793,2793,1503599986388,-6,-2,-3,-5,-4,-7,-17,-14
2794,2794,1503599986396,16,21,-6,0,0,4,5,9
2795,2795,1503599986404,-6,8,0,-4,-13,10,7,12
2796,2796,1503599986420,18,28,12,-2,-1,-9,32,9
2797,2797,1503599986426,-22,9,8,0,2,-12,-4,-14
2798,2798,1503599986434,-5,15,-10,3,1,-2,-10,-3
2799,2799,1503599986448,28,-12,-8,-3,-2,-6,-20,3
2800,2800,1503599986457,-14,-11,-6,-1,-1,23,13,-10
2801,2801,1503599986464,-24,-15,-4,3,5,-3,-5,-1
2802,2802,1503599986479,0,-20,-8,-5,-12,3,7,-8
2803,2803,1503599986488,-27,0,-2,1,0,5,-8,-8
2804,2804,1503599986494,-15,-20,0,-1,-1,-15,-2,6
2805,2805,1503599986508,20,-3,4,2,3,-5,27,1
2806,2806,1503599986517,-50,-13,6,-3,-12,-15,-4,-22
2807,2807,1503599986524,-14,4,0,-2,-1,-12,4,4
2808,2808,1503599986539,-9,-19,-5,-2,7,26,2,4
2809,2809,1503599986546,-1,-6,1,2,2,-19,-21,0
2810,2810,1503599986554,22,-19,-17,-5,-3,-10,-11,3
2811,2811,1503599986568,24,33,6,3,-2,7,-9,-21
2812,2812,1503599986576,-35,-8,-2,-2,5,0,-18,0
2813,2813,1503599986584,40,-4,2,-1,-2,-16,-10,10
2814,2814,1503599986599,-16,5,4,-3,-2,-1,-6,-7
2815,2815,1503599986606,-33,2,1,0,1,10,2,15
2816,2816,1503599986614,4,-15,-6,0,1,8,9,5
2817,2817,1503599986630,-1,15,8,3,-3,-3,6,-12
2818,2818,1503599986636,22,-5,-19,-3,7,11,-7,4
2819,2819,1503599986644,2,-21,-10,-2,-3,-3,-39,2
2820,2820,1503599986659,-10,16,8,2,-2,-12,8,-5
2821,2821,1503599986666,9,9,-2,-3,-7,3,16,0
2822,2822,1503599986674,0,1,4,7,2,5,3,11
2823,2823,1503599986688,7,-4,-11,-9,-1,5,12,-6
2824,2824,1503599986697,-3,15,9,6,0,-4,-1,-4
2825,2825,1503599986705,5,-5,14,-1,4,7,-10,0
2826,2826,1503599986719,8,34,-2,-3,-8,-2,35,-13
2827,2827,1503599986726,-26,2,-2,0,-3,3,-3,-10
2828,2828,1503599986734,16,4,3,5,13,-10,10,-5
2829,2829,1503599986748,-5,-14,-10,-3,0,16,16,0
2830,2830,1503599986758,14,1,-5,-9,-13,1,-3,3
2831,2831,1503599986764,-11,50,6,-6,-5,-18,-7,-10
2832,2832,1503599986779,-4,-21,-6,-3,-2,-2,-3,4
2833,2833,1503599986786,-62,-53,-4,-2,-12,28,16,-3
2834,2834,1503599986802,26,19,-6,-3,-1,-2,-53,-1
2835,2835,1503599986803,-32,3,7,2,4,-29,-40,-19
2836,2836,1503599986809,15,19,0,3,12,7,9,-7
2837,2837,1503599986816,-4,-14,1,0,-3,-3,-6,17
2838,2838,1503599986831,8,-11,-6,0,-1,-3,-9,18
2839,2839,1503599986839,23,41,18,1,-5,-8,-4,10
2840,2840,1503599986853,-3,-24,-6,-5,3,-18,-86,3
2841,2841,1503599986856,-10,-1,-9,-6,-10,-11,2,10
2842,2842,1503599986868,18,2,8,0,-15,-46,17,7
2843,2843,1503599986877,2,-36,-13,-4,3,4,8,-10
2844,2844,1503599986884,-2,-18,-1,1,-1,-20,7,1
2845,2845,1503599986899,8,0,-5,-2,7,14,2,2
2846,2846,1503599986906,13,6,6,5,11,-11,15,-3
2847,2847,1503599986914,-41,-4,4,1,1,3,15,-18
2848,2848,1503599986928,15,8,2,-1,-5,-13,5,16
2849,2849,1503599986936,38,23,5,2,12,36,-14,5
2850,2850,1503599986944,35,2,1,1,-4,13,14,-5
2851,2851,1503599986961,31,36,11,3,5,11,-5,2
2852,2852,1503599986966,-7,-13,-12,-4,-3,2,3,-5
2853,2853,1503599986974,11,-4,0,-2,-2,-10,-11,-2
2854,2854,1503599986990,30,28,7,3,-10,1,-1,5
2855,2855,1503599986997,-2,-4,-10,-7,-5,-17,-4,6
2856,2856,1503599987004,29,18,2,-5,6,11,16,6
2857,2857,1503599987019,8,0,4,3,-2,10,-3,0
2858,2858,1503599987026,-12,-10,-10,-5,1,20,0,-3
2859,2859,1503599987034,18,30,5,4,-2,8,-5,4
2860,2860,1503599987049,9,-5,-3,-1,-1,2,9,2
2861,2861,1503599987059,-15,-9,-3,0,-1,6,8,-6
2862,2862,1503599987065,22,14,3,1,-11,-6,0,4
2863,2863,1503599987079,-18,-22,2,0,-1,10,17,-5
2864,2864,1503599987086,-24,-6,-3,-3,5,-2,2,3
2865,2865,1503599987096,-52,14,10,0,-11,-32,-11,9
2866,2866,1503599987108,-38,-17,-3,-2,1,-6,-27,-8
2867,2867,1503599987117,-37,-26,-9,-4,-3,-6,6,-2
2868,2868,1503599987126,-6,-4,2,4,5,-2,6,-4
2869,2869,1503599987139,23,17,6,4,7,1,-15,-23
2870,2870,1503599987146,10,-20,-17,-6,-3,9,-10,-16
2871,2871,1503599987154,26,-4,-5,-1,-6,-15,6,5
2872,2872,1503599987168,4,17,5,4,2,27,32,5
2873,2873,1503599987176,11,1,-6,-5,-9,5,13,-4
2874,2874,1503599987184,-13,12,1,0,-1,-9,-11,-3
2875,2875,1503599987199,2,-17,-4,-3,2,14,-7,3
2876,2876,1503599987206,-27,-19,13,6,5,-1,-5,-5
2877,2877,1503599987222,-11,-13,-9,-2,3,-6,-11,7
2878,2878,1503599987228,-10,-27,-4,-2,-3,0,-5,-18
2879,2879,1503599987237,15,-13,-7,2,-8,-3,25,2
2880,2880,1503599987251,-7,17,6,1,4,-1,21,4
2881,2881,1503599987259,4,4,-1,-3,2,0,5,0
2882,2882,1503599987266,15,6,-2,1,-8,-18,-12,5
2883,2883,1503599987281,-12,14,-2,-2,1,-1,7,10
2884,2884,1503599987288,4,10,2,-1,2,-8,-3,4
2885,2885,1503599987296,-20,5,6,2,1,-4,-8,-4
2886,2886,1503599987311,-15,-4,-3,-4,3,1,-18,-6
2887,2887,1503599987319,-6,1,-8,-4,0,-11,-7,-7
2888,2888,1503599987327,11,-13,-2,-5,-7,-13,-19,1
2889,2889,1503599987341,-12,6,1,-2,-3,19,23,-2
2890,2890,1503599987342,9,-9,-1,1,3,7,2,2
2891,2891,1503599987349,-1,19,5,-3,-6,-41,0,-1
2892,2892,1503599987350,-3,-8,-4,3,10,44,-21,-6
2893,2893,1503599987357,7,-3,4,3,7,-11,-20,-5
2894,2894,1503599987372,-3,-23,-13,-2,4,3,2,0
2895,2895,1503599987379,19,-3,2,-4,-6,3,-2,0
2896,2896,1503599987387,12,-15,-8,2,-14,-30,3,-2
2897,2897,1503599987402,-41,3,-3,-4,-2,14,-2,-10
2898,2898,1503599987409,-29,0,3,0,-3,-4,8,5
2899,2899,1503599987417,9,-6,3,0,3,0,2,0
2900,2900,1503599987433,8,42,9,0,-5,8,5,-4
2901,2901,1503599987439,30,0,7,-1,-4,-38,-16,3
2902,2902,1503599987447,17,15,5,1,-5,-4,6,4
2903,2903,1503599987462,-5,38,5,7,1,0,25,0
2904,2904,1503599987471,-10,-27,-8,-8,-3,-20,0,2
2905,2905,1503599987476,-3,-28,-12,-1,-10,-30,-6,3
2906,2906,1503599987497,9,12,-2,-5,0,-4,7,-2
2907,2907,1503599987499,-7,7,0,-2,3,2,-6,-1
2908,2908,1503599987507,-25,-19,-2,3,2,-6,-7,-5
4114,4114,1503599999319,-30,-27,-14,-14,-8,29,-14,6
4115,4115,1503599999333,9,48,4,-1,-1,-35,2,-12
4116,4116,1503599999341,10,-16,-7,-7,-2,26,-39,-22
4117,4117,1503599999348,-1,27,5,0,10,8,-10,-3
4118,4118,1503599999364,-44,-12,4,3,0,-27,-3,6
4119,4119,1503599999371,5,7,-1,0,-12,-37,-7,-8
4120,4120,1503599999386,-47,20,-10,2,-2,-4,6,-7
4121,4121,1503599999396,-4,-8,-7,-3,-3,-12,21,23
4122,4122,1503599999407,17,17,15,9,0,-17,13,8
4123,4123,1503599999408,13,-15,-2,-3,-3,-6,5,16
4124,4124,1503599999423,-16,-11,-1,3,2,45,-31,5
4125,4125,1503599999431,45,44,4,2,8,11,-17,0
4126,4126,1503599999439,7,10,5,-3,5,38,34,8
4127,4127,1503599999454,-5,-2,3,2,-15,-18,-13,-14
4128,4128,1503599999463,-45,-3,-2,1,-6,-44,2,-9
4129,4129,1503599999468,-14,32,19,9,8,26,2,-10
4130,4130,1503599999483,10,-29,-13,-8,6,56,14,2
4131,4131,1503599999491,14,-4,-5,-3,1,27,1,-3
4132,4132,1503599999499,11,-20,-6,8,12,11,11,-3
4133,4133,1503599999514,19,-2,-10,-11,-3,-14,-3,-2
4134,4134,1503599999521,24,20,-6,-7,-9,-51,1,5
4135,4135,1503599999529,-7,42,38,9,3,-19,-1,5
4136,4136,1503599999543,8,-1,6,4,-3,-60,-24,-23
4137,4137,1503599999551,-15,-20,0,1,-6,-23,-2,-5
4138,4138,1503599999559,-3,14,14,-1,-3,-2,-3,0
4139,4139,1503599999574,-9,-22,-9,10,-1,-6,6,6
4140,4140,1503599999581,-13,-17,2,-1,-4,-4,0,0
4141,4141,1503599999588,-7,-2,4,-7,-3,-8,-2,-8
4142,4142,1503599999604,-13,-18,-3,1,6,36,16,-2
4143,4143,1503599999611,-15,-16,0,-5,0,-24,-8,-4
4144,4144,1503599999626,-47,-24,-10,-9,-5,9,-9,-4
4145,4145,1503599999633,-17,5,-12,-4,-6,-28,4,-1
4146,4146,1503599999649,-2,20,2,1,1,24,5,4
4147,4147,1503599999664,23,-13,-3,-5,-8,-9,2,2
4148,4148,1503599999671,6,-9,-3,2,1,20,-1,-3
4149,4149,1503599999679,7,-1,3,9,3,32,-5,-21
4150,4150,1503599999693,22,34,-1,-5,0,-12,-8,-5
4151,4151,1503599999701,21,-21,-8,0,-2,-30,-10,12
4152,4152,1503599999708,10,-22,-1,-1,2,31,0,1
4153,4153,1503599999723,24,27,9,0,-6,-8,-48,4
4154,4154,1503599999731,6,-14,-9,2,35,69,7,17
4155,4155,1503599999739,40,11,-1,-4,-2,-3,51,-10
4156,4156,1503599999753,2,3,-3,1,-4,10,26,6
4157,4157,1503599999763,-6,10,3,-2,-5,-9,4,11
4158,4158,1503599999768,-16,-16,-8,-7,-5,11,-25,-15
4159,4159,1503599999783,1,21,1,-3,-6,-22,-7,2
4160,4160,1503599999791,-71,-36,-5,3,-1,-25,-8,-38
4161,4161,1503599999802,-1,-3,-12,-7,9,-10,-20,-12
4162,4162,1503599999814,44,-14,1,1,-7,-1,4,14
4163,4163,1503599999821,-35,-23,-5,1,9,-9,14,0
4164,4164,1503599999835,31,-4,-3,-8,-9,-20,20,9
4165,4165,1503599999843,-28,6,-4,-12,-7,-31,-37,-1
4166,4166,1503599999844,-13,-3,21,23,4,10,-14,-4
4167,4167,1503599999851,0,-10,6,2,-6,7,29,9
4168,4168,1503599999859,-34,-4,-6,-17,-14,-35,-36,-9
4169,4169,1503599999874,-41,-3,1,-4,-2,-21,-17,18
4170,4170,1503599999881,-48,11,-5,-9,1,24,0,-9
4171,4171,1503599999888,47,5,-14,-13,-18,28,-53,15
4172,4172,1503599999903,-3,-6,4,4,-4,24,17,-11
4173,4173,1503599999911,-34,-12,-5,3,15,-8,-8,-38
4174,4174,1503599999919,51,18,14,3,2,-1,8,-2
4175,4175,1503599999935,-6,-2,11,4,3,-14,-25,-9
4176,4176,1503599999941,18,31,-6,2,0,16,32,13
4177,4177,1503599999948,-24,5,-6,-2,-3,-2,53,5
4178,4178,1503599999970,-51,-17,-10,-5,12,73,4,3
4179,4179,1503599999971,7,14,5,6,-16,-39,-24,3
4180,4180,1503599999979,47,-21,-2,3,-7,-18,-5,13
4181,4181,1503599999994,11,9,2,-8,1,22,-5,-23
4182,4182,1503600000004,50,19,-3,0,-4,5,38,1
4183,4183,1503600000008,-3,9,-13,2,-11,-79,1,8
4184,4184,1503600000023,1,-1,3,-2,6,-26,37,13
4185,4185,1503600000041,65,4,-2,-2,0,15,-2,-9
4186,4186,1503600000042,-9,19,8,-1,-12,-39,-11,8
4187,4187,1503600000057,-57,-51,-6,-1,4,3,17,-3
4188,4188,1503600000061,9,-7,5,5,7,27,-27,7
4189,4189,1503600000069,8,13,-2,1,5,4,-1,-8
4190,4190,1503600000083,13,-9,-1,8,4,-31,-18,2
4191,4191,1503600000091,-10,9,-2,-4,-3,-11,1,2
4192,4192,1503600000105,-12,38,1,-10,-4,18,-4,-2
4193,4193,1503600000114,-91,-2,-2,-2,2,-6,-11,-18
4194,4194,1503600000121,4,-17,-18,-3,2,13,38,-22
4195,4195,1503600000128,29,2,11,4,1,22,5,26
4196,4196,1503600000143,-13,3,0,-1,-1,-14,2,7
4197,4197,1503600000151,-19,32,-3,-7,-2,11,-14,-9
4198,4198,1503600000159,-23,-27,-9,-5,-3,-35,-21,-62
4199,4199,1503600000174,26,20,6,5,22,19,-9,12
4200,4200,1503600000181,-26,8,5,-8,-9,18,11,24
4201,4201,1503600000188,21,22,22,2,-18,-38,14,1
4202,4202,1503600000204,21,13,-15,-3,7,3,-8,18
4203,4203,1503600000211,29,23,11,11,1,16,-3,9
4204,4204,1503600000219,40,-21,-12,-3,-11,-16,-11,11
5461,5461,1503600012667,24,-5,3,1,1,0,5,15
5462,5462,1503600012675,15,-15,-4,0,-4,1,1,7
5463,5463,1503600012683,-10,-6,-2,1,-1,2,-2,0
5464,5464,1503600012700,-2,-4,-4,-2,-4,-8,-4,-6
5465,5465,1503600012705,14,2,0,-3,2,-2,8,7
5466,5466,1503600012713,-17,-8,-6,8,4,2,-2,-14
5467,5467,1503600012730,-10,-5,-7,5,4,11,2,-15
5468,5468,1503600012735,5,3,-9,-8,1,0,-21,-2
5469,5469,1503600012743,4,-10,-8,-6,-6,-16,-3,-10
5470,5470,1503600012758,-5,12,6,2,-3,-3,1,-6
5471,5471,1503600012765,22,16,3,-3,0,0,-2,-28
5472,5472,1503600012773,-15,-2,-6,0,1,-3,2,5
5473,5473,1503600012787,-8,-6,-15,-4,-2,2,10,-5
5474,5474,1503600012796,-9,-19,-9,-3,2,7,3,1
5475,5475,1503600012802,17,20,15,14,4,0,-2,-8
5476,5476,1503600012818,-6,12,13,0,-3,6,0,-1
5477,5477,1503600012825,-11,-10,0,-5,-2,-5,-2,10
5478,5478,1503600012833,22,8,2,-1,-1,1,6,3
5479,5479,1503600012848,-9,-16,-4,-1,-2,1,-6,9
5480,5480,1503600012855,-2,1,2,-1,-5,1,-21,3
5481,5481,1503600012864,-48,-6,5,-5,-5,3,0,12
5482,5482,1503600012878,9,-5,6,2,2,0,10,0
5483,5483,1503600012885,-6,-4,-10,3,-2,-1,-3,7
5484,5484,1503600012893,1,-2,0,-1,0,-2,3,-10
5485,5485,1503600012907,8,6,-6,-8,-4,-6,1,7
5486,5486,1503600012915,1,11,-7,-2,3,1,7,12
5487,5487,1503600012931,17,-6,-2,-2,-1,1,-5,-15
5488,5488,1503600012938,28,13,3,-1,-1,1,2,1
5489,5489,1503600012946,-6,-3,-1,1,1,-9,-18,0
5490,5490,1503600012953,0,-10,-4,1,-2,-2,4,-13
5491,5491,1503600012968,8,4,-1,3,1,-20,1,2
5492,5492,1503600012976,1,12,14,3,2,3,3,11
5493,5493,1503600012991,-18,-1,1,-4,0,4,0,-5
5494,5494,1503600012998,10,30,15,3,-1,-3,-2,-7
5495,5495,1503600013006,-7,14,1,0,2,5,-1,-5
5496,5496,1503600013013,-21,-28,-19,-6,-2,-3,-3,0
5497,5497,1503600013033,13,1,2,-1,-3,4,4,3
5498,5498,1503600013035,-21,-34,-5,-2,0,1,2,4
5499,5499,1503600013051,-7,-21,-10,-4,-4,2,4,2
5500,5500,1503600013058,3,-4,-5,3,-3,-8,11,2
5501,5501,1503600013072,-1,0,4,-4,-5,-16,5,1
5502,5502,1503600013073,20,2,-1,-1,3,9,1,6
5503,5503,1503600013088,-17,9,2,2,1,-5,-3,19
5504,5504,1503600013098,2,8,-3,-1,3,14,-2,-9
5505,5505,1503600013111,-10,15,22,3,2,9,-6,-5
5506,5506,1503600013118,-2,-4,-5,0,-3,-9,0,0
5507,5507,1503600013126,10,-19,-5,-1,1,5,1,-10
5508,5508,1503600013133,6,-5,-5,-3,-4,1,-2,5
5509,5509,1503600013149,15,-7,-8,-9,-2,0,0,3
5510,5510,1503600013155,0,15,-3,-1,-1,2,-1,-34
5511,5511,1503600013178,-3,-1,-1,1,-4,-8,1,-6
5512,5512,1503600013179,-28,-7,-6,-5,1,4,-6,3
5513,5513,1503600013186,21,14,-5,-3,2,2,0,2
5514,5514,1503600013193,-13,3,4,0,-3,1,-1,4
5515,5515,1503600013208,-42,-2,-9,-3,2,4,2,-5
5516,5516,1503600013215,-7,-10,-1,-3,1,7,-10,-4
5517,5517,1503600013238,-1,-2,-4,-2,-7,0,7,3
5518,5518,1503600013240,-13,6,8,3,2,7,0,-6
5519,5519,1503600013246,1,16,0,-1,-1,-5,-5,10
5520,5520,1503600013253,28,5,-6,-3,-5,-4,16,0
5521,5521,1503600013271,-14,-15,-7,-2,-1,-2,-3,-21
5522,5522,1503600013275,15,-12,-5,-2,-1,1,2,-11
5523,5523,1503600013291,-18,-7,0,1,3,10,-1,-12
5524,5524,1503600013306,1,-13,5,4,-6,-21,1,9
5525,5525,1503600013320,9,-7,1,0,-5,-36,-5,6
5526,5526,1503600013328,7,-6,-1,1,-6,2,-1,1
5527,5527,1503600013335,6,5,3,3,-2,3,-5,4
5528,5528,1503600013351,-4,5,0,-1,-2,-16,8,5
5529,5529,1503600013358,-34,-16,-9,-7,-6,-4,-1,8
5530,5530,1503600013368,18,11,8,7,3,1,1,-1
5531,5531,1503600013380,11,-20,-6,1,1,4,-3,10
5532,5532,1503600013388,3,-6,-5,-7,5,8,-6,2
5533,5533,1503600013395,-10,-6,1,4,1,-7,-10,-1
5534,5534,1503600013411,6,28,5,3,11,24,-7,-2
5535,5535,1503600013418,12,15,-1,-6,-4,1,2,0
5536,5536,1503600013426,6,8,5,2,0,0,-3,-3
5537,5537,1503600013441,-12,24,17,3,0,0,2,-5
5538,5538,1503600013448,2,-2,-10,-2,-1,-5,-1,-1
5539,5539,1503600013455,12,1,1,2,-3,-2,-2,0
5540,5540,1503600013475,2,30,35,5,0,-2,-1,-19
5541,5541,1503600013478,6,-50,-6,-1,0,-1,-3,-3
5542,5542,1503600013486,-2,-6,1,-6,-7,0,-1,9
5543,5543,1503600013501,-15,-26,31,6,2,2,1,-2
5544,5544,1503600013508,18,-3,6,2,-2,-1,-1,1
5545,5545,1503600013515,-4,-17,-11,-3,0,-1,0,-1
5546,5546,1503600013532,-23,-9,-12,-5,1,14,2,3
5547,5547,1503600013538,3,26,-1,2,6,-3,-7,-4
5548,5548,1503600013546,5,6,-9,0,-5,-17,-9,6
5549,5549,1503600013560,30,27,3,0,-1,-6,2,7
5550,5550,1503600013569,17,-5,-3,-4,0,4,1,2
5551,5551,1503600013575,-16,0,-1,0,0,10,-6,-7
5552,5552,1503600013591,-31,-24,-17,-4,-2,18,2,6
5553,5553,1503600013600,28,18,-4,-10,-5,-2,7,-1
5554,5554,1503600013606,-12,-20,-5,-3,-2,0,14,3
5555,5555,1503600013620,-1,22,-9,-3,3,9,-3,-3
5556,5556,1503600013628,-2,-8,-4,-2,-6,-16,-1,-4
5557,5557,1503600013635,-29,-7,-9,-4,-1,2,-10,-14
5558,5558,1503600013651,6,5,-3,3,8,10,-3,-3
5559,5559,1503600013658,-8,-13,0,5,1,-8,0,5
5560,5560,1503600013668,5,-8,-5,2,2,5,-5,-3
5561,5561,1503600013680,-3,11,5,5,0,4,2,3
5562,5562,1503600013695,-14,12,11,-1,-3,-8,-14,-8
5563,5563,1503600013696,8,-6,-9,-5,-5,-9,7,8
5564,5564,1503600013711,-13,-15,-3,2,2,1,5,1
5565,5565,1503600013718,-10,-8,2,2,2,5,-9,1
5566,5566,1503600013726,4,11,-5,-1,-1,9,-4,4
5567,5567,1503600013741,6,-11,-8,-5,-9,-12,1,-4
5568,5568,1503600013749,-2,-7,4,0,-4,-13,-1,-11
5569,5569,1503600013756,0,-9,-6,-5,6,16,1,4
5570,5570,1503600013771,-8,-8,-8,-10,-3,-1,-1,9
5571,5571,1503600013778,-5,0,-4,-5,-5,-3,5,13
5572,5572,1503600013786,-22,-7,-8,-4,-2,-4,0,-2
5573,5573,1503600013801,-8,6,9,2,1,-4,5,-16
5574,5574,1503600013809,-4,4,0,1,2,3,0,-2
5575,5575,1503600013815,13,12,4,-1,-2,6,-3,-3
5576,5576,1503600013831,9,-5,-1,0,3,-2,-4,2
5577,5577,1503600013838,15,35,2,-1,-17,-18,-4,5
5578,5578,1503600013846,18,7,4,4,1,1,-3,-30
5579,5579,1503600013860,-1,7,3,2,5,2,0,-3
5580,5580,1503600013868,22,10,2,-1,-11,-6,8,13
5581,5581,1503600013875,-13,-6,-6,-4,2,2,-3,-16
5582,5582,1503600013891,-4,7,2,-3,6,7,-6,4
5583,5583,1503600013898,-6,3,-6,-2,-3,-7,-2,9
5584,5584,1503600013907,-3,-14,-1,1,3,-5,-2,9
5585,5585,1503600013920,-10,-16,-3,0,2,4,-17,-5
5586,5586,1503600013928,9,26,5,0,-4,-4,-1,-17
5587,5587,1503600013936,-12,-22,-8,-1,3,5,7,4
5588,5588,1503600013951,2,-6,0,-3,-6,6,2,6
5589,5589,1503600013958,11,-6,-6,-3,2,2,1,-3
5590,5590,1503600013969,-22,-16,-2,-2,-8,2,5,22
5591,5591,1503600013980,-31,-22,-5,-4,-8,-7,3,3
5592,5592,1503600013988,8,-10,4,3,8,-1,-6,-3
5593,5593,1503600013995,-29,8,6,-3,0,-3,-14,-3
5594,5594,1503600014011,9,-5,1,-1,-5,-10,-7,-11
5595,5595,1503600014018,28,13,9,4,2,-2,4,-1
5596,5596,1503600014026,-21,-10,-1,-2,0,-4,1,-15
5597,5597,1503600014041,-45,-23,-11,-2,1,-1,-2,-3
5598,5598,1503600014049,3,16,10,4,3,1,6,5
5599,5599,1503600014055,0,-6,-3,9,9,8,1,-4
5600,5600,1503600014072,28,-5,-9,-1,-1,-4,-1,1
5601,5601,1503600014078,34,22,16,1,-8,-11,11,-9
5602,5602,1503600014086,53,5,-5,1,-2,-4,5,11
5603,5603,1503600014102,21,-7,-11,-8,-7,1,2,1
5604,5604,1503600014109,0,-27,-15,-3,-1,2,-7,-8
5605,5605,1503600014115,-17,10,1,0,-2,-2,-2,3
5606,5606,1503600014131,-12,7,-5,-5,1,-4,1,10
5607,5607,1503600014138,6,-3,-1,3,-1,-2,0,-17
5608,5608,1503600014146,-20,-3,4,-1,-4,-2,1,1
5609,5609,1503600014161,-3,10,10,-2,2,1,-17,2
5610,5610,1503600014169,-40,-1,0,-4,1,0,6,-13
5611,5611,1503600014176,-2,-15,-12,-7,4,2,5,14
5612,5612,1503600014191,-10,1,0,5,-2,7,-4,-22
5613,5613,1503600014198,-11,2,-5,-3,-7,-21,0,8
5614,5614,1503600014206,28,23,6,0,0,-1,-5,-10
5615,5615,1503600014220,-17,-2,4,1,5,17,1,2
5616,5616,1503600014228,16,-28,-14,-6,-5,-11,6,6
5617,5617,1503600014236,-9,-6,5,1,-2,-8,-7,-3
5618,5618,1503600014252,-5,3,12,5,0,-26,-7,-14
5619,5619,1503600014258,46,2,-5,3,-2,4,9,5
5620,5620,1503600014273,-7,1,-1,0,0,10,1,8
5621,5621,1503600014280,-24,9,1,-1,-1,-3,2,-4
5622,5622,1503600014288,-6,27,25,4,2,-4,4,2
5623,5623,1503600014305,-21,-16,-7,2,7,13,3,-3
5624,5624,1503600014311,14,11,-5,-8,-3,-16,-6,18
6614,6614,1503600024075,-11,-17,-5,1,1,0,-1,-5
6615,6615,1503600024084,-5,1,6,0,0,14,-1,-13
6616,6616,1503600024098,-14,-9,-7,-5,1,-1,-4,-12
6617,6617,1503600024105,2,9,1,0,-2,-1,2,5
6618,6618,1503600024113,-32,-16,-8,0,-13,-26,-5,9
6619,6619,1503600024127,-10,-22,-17,-2,9,20,-7,-1
6620,6620,1503600024135,4,9,5,0,3,-22,-4,4
6621,6621,1503600024142,-12,-10,-7,-1,-1,-15,10,-6
6622,6622,1503600024159,0,0,4,3,5,5,13,-3
6623,6623,1503600024165,-24,-25,-16,-8,-7,6,-4,3
6624,6624,1503600024173,6,18,3,2,2,23,1,-8
6625,6625,1503600024188,-33,-6,-15,-5,-5,-3,-3,-13
6626,6626,1503600024196,12,9,0,-4,1,6,-4,4
6627,6627,1503600024202,13,22,11,5,-7,-27,0,7
6628,6628,1503600024219,-23,-7,-2,1,-2,-17,13,3
6629,6629,1503600024225,-5,-1,1,-3,3,-9,6,2
6630,6630,1503600024233,-10,2,1,-3,-7,-46,-3,6
6631,6631,1503600024247,-20,-12,10,3,4,15,4,3
6632,6632,1503600024255,16,-24,-7,-5,6,40,0,3
6633,6633,1503600024264,-4,9,-1,-3,-2,12,-2,-1
6634,6634,1503600024278,-15,-3,-11,-4,-2,-2,-7,-6
6635,6635,1503600024287,23,-5,-1,-3,3,22,0,9
6636,6636,1503600024293,13,18,3,3,-1,8,1,2
6637,6637,1503600024307,-9,0,6,3,2,-7,-9,-13
6638,6638,1503600024315,17,14,7,6,3,-10,-13,3
6639,6639,1503600024322,7,-7,-5,-3,-2,-3,-6,6
6640,6640,1503600024338,14,10,7,-7,2,25,1,-5
6641,6641,1503600024345,-5,-7,-5,3,4,8,0,1
6642,6642,1503600024353,19,4,6,2,-3,-15,1,8
6643,6643,1503600024367,10,-4,-9,0,5,-4,-1,-3
6644,6644,1503600024376,3,-6,-1,0,-2,4,3,0
6645,6645,1503600024382,17,-16,3,-5,-5,-11,-3,-7
6646,6646,1503600024398,-4,37,-3,-3,-3,-3,-6,-10
6647,6647,1503600024405,25,29,41,5,-3,-2,0,4
6648,6648,1503600024413,-10,-7,-5,0,9,16,5,-6
6649,6649,1503600024428,15,-18,-19,-6,-6,-6,-7,7
6650,6650,1503600024435,14,4,12,6,1,3,6,11
6651,6651,1503600024442,0,12,-4,2,-6,5,11,-2
6652,6652,1503600024458,-14,-2,-21,-10,-3,7,3,-6
6653,6653,1503600024465,12,0,-5,-2,0,-8,1,-16
6654,6654,1503600024473,6,24,4,2,-3,-30,-5,-6
6655,6655,1503600024488,10,-10,-7,-6,-3,6,0,3
6656,6656,1503600024496,33,30,4,-1,-3,10,-3,4
6657,6657,1503600024510,-7,17,9,1,0,-4,-6,-20
6658,6658,1503600024518,-16,-35,-5,0,-3,4,-4,-10
6659,6659,1503600024525,-6,8,-5,-9,-3,10,5,13
6660,6660,1503600024540,9,13,6,4,-2,-10,0,-3
6661,6661,1503600024547,-28,-11,1,3,1,26,-9,-15
6662,6662,1503600024559,-12,-22,-5,4,12,22,-2,5
6663,6663,1503600024570,-1,45,28,7,4,-11,-3,5
6664,6664,1503600024578,1,3,2,-2,-5,-9,-2,-1
6665,6665,1503600024585,-23,-24,-12,2,-1,7,6,6
6666,6666,1503600024600,-3,15,-6,-10,-7,-1,4,9
6667,6667,1503600024607,-2,-25,-4,2,0,-13,-2,6
6668,6668,1503600024615,-25,-19,-5,1,6,-10,-2,-12
6669,6669,1503600024630,11,0,3,-1,-2,-4,4,4
6670,6670,1503600024638,-6,-12,-3,-3,-5,-8,-2,-1
6671,6671,1503600024645,2,-28,-16,-14,1,4,5,-2
6672,6672,1503600024660,0,-35,-11,-5,-2,2,1,2
6673,6673,1503600024667,-11,15,-17,-2,-5,-7,0,-6
6674,6674,1503600024675,13,-12,-11,-4,-2,-4,3,14
6675,6675,1503600024690,-39,-13,-1,5,-2,-9,-8,12
6676,6676,1503600024698,-81,-26,-5,-2,-5,-8,-6,-15
6677,6677,1503600024705,29,20,4,0,0,-15,-11,2
6678,6678,1503600024721,31,15,7,-2,-5,-8,6,-12
6679,6679,1503600024727,-2,-33,-13,-2,0,5,2,-9
6680,6680,1503600024735,-6,-9,13,6,6,-3,1,6
6681,6681,1503600024750,8,-2,-12,4,6,-12,-6,-29
6682,6682,1503600024758,-12,7,-3,-2,-2,-6,0,-3
6683,6683,1503600024765,-19,29,3,-1,-3,0,-5,-1
6684,6684,1503600024780,-17,29,-4,-5,-1,11,1,-11
6685,6685,1503600024789,18,0,-1,-2,1,23,0,3
6686,6686,1503600024795,-36,-5,3,-2,6,8,0,0
6687,6687,1503600024796,14,-21,-17,-4,-7,14,2,0
6688,6688,1503600024810,-12,-1,4,-5,-8,-4,-3,6
6689,6689,1503600024818,9,5,-8,-4,1,13,-4,9
6690,6690,1503600024825,6,5,1,1,0,0,6,14
6691,6691,1503600024840,2,7,25,7,-1,-10,-2,8
6692,6692,1503600024847,24,1,1,2,0,5,0,6
6693,6693,1503600024856,11,11,7,-4,-4,-8,-4,-2
6694,6694,1503600024870,-2,6,6,1,5,-9,32,-3
6695,6695,1503600024878,-2,-5,-5,-10,-3,4,5,22
6696,6696,1503600024885,12,-3,-3,1,1,-28,-20,-5
6697,6697,1503600024900,-18,-13,2,5,7,3,-12,-3
6698,6698,1503600024907,-23,-18,-4,-1,-4,4,7,-12
6699,6699,1503600024915,43,-6,1,2,5,-7,-3,8
6700,6700,1503600024930,21,-1,13,4,-7,-12,1,10
6701,6701,1503600024938,-16,18,2,2,-3,-8,-6,0
6702,6702,1503600024945,31,-4,-8,-7,-5,-2,6,2
6703,6703,1503600024960,19,1,3,-3,1,-1,4,-12
6704,6704,1503600024967,-5,24,0,-6,-10,25,13,8
6705,6705,1503600024975,29,-2,9,5,-3,7,6,-4
6706,6706,1503600024991,-8,14,3,1,-5,-42,-11,-5
6707,6707,1503600024999,-16,-3,2,3,1,-30,-46,-2
6708,6708,1503600025005,-38,8,-1,-1,7,22,-9,-12
6709,6709,1503600025020,6,-18,-6,-1,0,-22,11,-37
6710,6710,1503600025028,11,-7,-2,-1,2,-9,-8,0
6711,6711,1503600025035,-3,1,1,-1,-2,6,5,-2
6712,6712,1503600025050,-15,-11,-2,3,3,7,1,-21
6713,6713,1503600025059,3,36,-1,0,16,45,19,9
6714,6714,1503600025065,-8,-23,-9,-12,-7,2,-3,38
6715,6715,1503600025080,-3,-4,-9,-4,-3,-11,9,1
6716,6716,1503600025087,14,33,3,0,-1,19,-5,3
6717,6717,1503600025095,-12,-20,1,5,9,75,20,17
6718,6718,1503600025110,-9,-29,-3,3,10,-6,-7,-22
6719,6719,1503600025118,-14,29,9,2,3,5,15,-7
6720,6720,1503600025125,6,28,3,1,-1,-13,-2,-4
6721,6721,1503600025140,-12,-25,-6,-2,-12,-22,0,-9
6722,6722,1503600025147,21,40,24,1,-4,-37,-11,4
6723,6723,1503600025158,34,-16,-9,-5,-16,-10,15,-7
6724,6724,1503600025170,-13,-38,-12,-1,-4,0,8,0
6725,6725,1503600025178,7,-12,-4,-2,4,20,5,-5
6726,6726,1503600025185,36,-6,-4,1,5,31,0,25
6727,6727,1503600025200,-28,4,-3,2,3,-10,-19,7
6728,6728,1503600025214,-24,8,-13,-5,-3,-19,4,-3
6729,6729,1503600025216,43,-28,-17,-5,-8,-24,-7,2
6730,6730,1503600025230,15,-18,-3,-3,-4,-2,-8,-30
6731,6731,1503600025238,-23,2,0,-4,-2,-3,7,5
6732,6732,1503600025245,10,4,4,8,17,-4,-22,2
6733,6733,1503600025260,3,37,5,-6,-3,-21,-8,-17
6734,6734,1503600025267,-47,-16,3,-1,-9,-18,2,0
6735,6735,1503600025275,-19,-16,7,3,3,-13,-17,3
6736,6736,1503600025291,-16,-9,-2,-3,0,19,22,6
6737,6737,1503600025298,-12,-1,-9,-6,-15,-15,-36,-8
6738,6738,1503600025305,6,-3,-7,-2,2,9,10,19
6739,6739,1503600025320,-53,26,0,-1,-7,-14,23,14
6740,6740,1503600025328,35,-12,-8,2,-2,6,-10,-3
6741,6741,1503600025335,13,5,1,1,2,6,-11,-5
6742,6742,1503600025350,-6,-8,-5,-8,-20,-35,13,-19
6743,6743,1503600025359,9,-4,2,2,-1,7,-33,-5
6744,6744,1503600025366,3,3,6,0,-9,-21,35,3
6745,6745,1503600025367,0,6,-3,-5,6,18,10,7
6746,6746,1503600025380,20,5,0,-1,-1,-11,-11,-25
6747,6747,1503600025387,-6,32,8,3,0,-5,-14,-2
6748,6748,1503600025396,-12,-34,-12,-3,4,5,16,12
6749,6749,1503600025410,-2,-1,-2,-3,-4,7,-15,-2
6750,6750,1503600025418,-40,-32,-16,-7,4,-11,5,-23
6751,6751,1503600025453,-25,-11,6,6,14,16,-34,-5
6752,6752,1503600025478,-23,-22,-10,0,-2,-6,-1,14
6753,6753,1503600025482,12,14,6,2,3,3,11,31
6754,6754,1503600025492,-55,-20,-10,-11,-5,-1,8,-9
6755,6755,1503600025518,-29,4,-8,-9,-8,-12,4,10
6756,6756,1503600025522,25,-15,5,5,3,11,8,-13
6757,6757,1503600025530,8,-7,-1,-1,-8,12,6,7
6758,6758,1503600025538,7,20,8,2,-2,-9,4,15
6759,6759,1503600025552,16,10,2,-2,-11,-30,-7,2
6760,6760,1503600025566,20,-5,-5,7,4,6,-11,-6
6761,6761,1503600025571,34,43,16,4,0,-12,1,3
6762,6762,1503600025583,-11,-19,-7,-4,9,4,6,-3
6763,6763,1503600025590,18,5,9,4,3,29,-14,-3
6764,6764,1503600025598,24,42,-2,-9,-1,7,1,8
6765,6765,1503600025612,43,12,-5,-2,0,-23,2,7
6766,6766,1503600025620,18,-4,-3,-3,-12,-15,-29,-15
6767,6767,1503600025627,34,-4,12,5,3,5,22,17
6768,6768,1503600025642,-29,7,12,4,-1,-1,7,11
7544,7544,1503600033321,4,10,-1,1,0,1,-1,1
7545,7545,1503600033329,-1,-11,-5,-1,1,3,-2,-2
7546,7546,1503600033337,-4,-6,-4,-2,-3,-1,1,-2
7547,7547,1503600033352,-3,-9,-3,-4,-1,-1,-1,-2
7548,7548,1503600033359,4,-2,-3,-1,-2,-2,-1,-5
7549,7549,1503600033367,6,5,2,4,-1,0,1,3
7550,7550,1503600033381,1,2,1,1,-1,-1,0,-14
7551,7551,1503600033389,1,0,0,-1,2,1,0,4
7552,7552,1503600033397,-3,-3,3,0,-2,-1,0,7
7553,7553,1503600033412,-6,-8,3,0,-1,-1,1,-4
7554,7554,1503600033419,-5,-3,-2,-2,-2,-3,-1,1
7555,7555,1503600033427,-1,3,-1,1,2,0,-1,-2
7556,7556,1503600033441,-3,-6,-1,-1,1,0,-1,3
7557,7557,1503600033453,-4,-8,1,-1,-4,-1,-2,-3
7558,7558,1503600033457,7,-1,-4,-4,-1,2,2,0
7559,7559,1503600033472,-2,-5,-2,1,0,-3,0,1
7560,7560,1503600033480,-3,19,6,1,-1,-1,-5,-4
7561,7561,1503600033487,-4,-1,-1,1,-1,-2,1,1
7562,7562,1503600033503,-9,-4,0,0,3,-1,-1,3
7563,7563,1503600033510,-2,10,-2,-2,-1,-3,0,0
7564,7564,1503600033527,-11,-5,-1,0,-2,-3,-1,-2
7565,7565,1503600033532,-8,-10,-3,0,-2,-3,-2,-6
7566,7566,1503600033541,-2,3,-3,-2,-2,-3,0,-2
7567,7567,1503600033549,7,2,0,-1,1,-2,-3,-2
7568,7568,1503600033562,-1,7,3,-1,1,-2,-2,1
7569,7569,1503600033563,-5,-9,-1,-1,-1,-1,0,-3
7570,7570,1503600033569,1,1,3,0,-1,1,1,0
7571,7571,1503600033585,1,-16,-1,-1,-1,1,-1,-2
7572,7572,1503600033592,1,-9,-2,-2,0,0,-3,1
7573,7573,1503600033601,-5,2,2,1,1,1,1,2
7574,7574,1503600033608,1,-7,0,0,-1,-2,0,-2
7575,7575,1503600033609,1,7,-2,0,-1,-1,-2,0
7576,7576,1503600033623,3,-2,-1,0,-1,-1,-3,1
7577,7577,1503600033629,-4,-2,0,-1,-2,-1,1,0
7578,7578,1503600033646,4,4,-1,-1,-1,-1,1,1
7579,7579,1503600033652,0,5,-2,0,0,1,-2,-5
7580,7580,1503600033660,3,-6,-3,-3,1,1,-2,0
7581,7581,1503600033667,-4,1,-5,-4,-2,-4,1,2
7582,7582,1503600033683,-3,8,-3,-1,-2,-2,-3,-4
7583,7583,1503600033690,5,-4,-3,1,2,-1,1,2
7584,7584,1503600033691,-2,-4,2,0,0,-1,-1,-2
7585,7585,1503600033705,2,0,0,-1,1,0,0,-5
7586,7586,1503600033715,-3,11,3,1,0,2,-1,-3
7587,7587,1503600033720,0,-2,-1,1,-1,-3,-2,-8
7588,7588,1503600033727,0,2,-2,0,0,3,1,-2
7589,7589,1503600033742,4,-1,-3,-3,-1,2,2,-5
7590,7590,1503600033751,-2,-4,-1,-2,-2,-4,-3,-4
7591,7591,1503600033765,-6,-2,-1,0,1,-1,-2,2
7592,7592,1503600033772,3,4,-2,-3,-1,-3,-3,-1
7593,7593,1503600033781,11,9,-1,-2,-1,-1,1,8
7594,7594,1503600033787,2,0,-5,1,-1,-2,-1,5
7595,7595,1503600033802,-5,-8,-3,-2,-1,3,3,-3
7596,7596,1503600033803,3,1,2,-1,-3,-3,-3,2
7597,7597,1503600033809,1,-2,1,0,1,-2,1,1
7598,7598,1503600033825,-10,3,-1,-1,-3,-1,0,-2
7599,7599,1503600033832,-1,-10,-2,-1,-4,-2,0,-2
7600,7600,1503600033841,-3,-8,1,2,5,8,-5,2
7601,7601,1503600033855,-14,-16,-4,4,2,-1,-2,-2
7602,7602,1503600033862,-10,-7,1,-2,2,5,-1,1
7603,7603,1503600033869,6,6,2,0,0,2,3,-1
7604,7604,1503600033885,-9,-12,-2,5,0,-14,1,-2
7605,7605,1503600033892,1,0,2,-4,-1,0,0,3
7606,7606,1503600033900,-8,0,3,-1,-3,1,7,2
7607,7607,1503600033915,18,9,0,0,-2,2,-4,-2
7608,7608,1503600033923,0,2,-2,-3,1,13,1,8
7609,7609,1503600033929,3,-9,-1,-2,-1,0,0,-1
7610,7610,1503600033945,1,12,-5,-5,-4,-6,-2,-2
7611,7611,1503600033952,-9,-3,0,8,3,-2,-5,-5
7612,7612,1503600033960,6,-12,1,5,0,1,-2,-2
7613,7613,1503600033974,-7,7,-3,-3,-1,-9,-2,-1
7614,7614,1503600033983,-19,-18,-5,-4,-9,-1,-1,-7
7615,7615,1503600033990,14,10,-3,-4,-2,0,-6,-2
7616,7616,1503600034005,-12,17,4,-2,1,-2,-3,0
7617,7617,1503600034012,-3,-12,-3,-2,-5,5,-2,1
7618,7618,1503600034021,21,9,1,-4,-1,-4,-5,-4
7619,7619,1503600034034,1,-2,1,-1,-1,8,3,1
7620,7620,1503600034042,8,4,-4,-2,-1,-8,0,1
7621,7621,1503600034049,4,19,7,4,2,-4,3,0
7622,7622,1503600034066,3,8,1,-1,-2,-1,1,1
7623,7623,1503600034072,4,3,7,0,-1,-2,2,-3
7624,7624,1503600034082,7,-2,2,0,2,1,-1,-6
7625,7625,1503600034094,-24,-18,-7,-4,1,-4,1,9
7626,7626,1503600034102,-3,-16,-7,0,0,4,2,0
7627,7627,1503600034109,3,-7,-7,-1,-1,-4,-2,0
7628,7628,1503600034126,-7,6,-2,-2,6,-1,-10,0
7629,7629,1503600034132,-24,-9,9,-1,-1,1,-3,-4
7630,7630,1503600034140,7,30,5,-1,-3,0,2,1
7631,7631,1503600034154,-6,1,-3,-1,-3,2,2,0
7632,7632,1503600034162,0,-13,-1,1,-4,-3,0,1
7633,7633,1503600034169,18,-2,-1,-3,-8,-10,-2,1
7634,7634,1503600034185,-1,-14,-5,0,-2,-3,3,-1
7635,7635,1503600034192,-8,-12,-4,0,0,5,-14,-5
7636,7636,1503600034207,-2,-3,-9,-2,-1,-4,-2,-7
7637,7637,1503600034217,-1,-5,0,5,-3,-6,0,3
7638,7638,1503600034223,-13,-10,5,0,-6,0,1,-11
7639,7639,1503600034229,9,1,-5,-2,2,-2,3,-2
7640,7640,1503600034245,6,2,1,1,2,3,3,0
7641,7641,1503600034252,13,-10,-6,-4,1,-7,5,-11
7642,7642,1503600034260,-15,-1,-5,-4,-4,-6,-2,-1
7643,7643,1503600034274,8,-11,-4,-2,-2,0,-17,11
7644,7644,1503600034288,11,8,1,-1,-3,1,-6,5
7645,7645,1503600034289,-12,3,-2,-6,-3,0,4,-1
7646,7646,1503600034305,-4,-13,2,2,2,11,8,4
7647,7647,1503600034312,4,2,-3,2,2,20,11,1
7648,7648,1503600034321,15,-5,-4,4,0,1,1,2
7649,7649,1503600034334,26,14,1,0,6,-16,6,1
7650,7650,1503600034342,4,0,5,2,2,0,2,7
7651,7651,1503600034351,-16,-10,-8,-3,-3,2,-5,4
7652,7652,1503600034365,1,0,3,-1,1,-6,3,2
7653,7653,1503600034372,-12,1,-6,-3,-2,8,-17,-5
7654,7654,1503600034380,-22,0,0,1,2,-10,-9,-4
7655,7655,1503600034394,-24,16,4,1,-1,-7,4,-4
7656,7656,1503600034402,27,41,9,7,2,15,3,-1
7657,7657,1503600034409,-27,1,2,6,1,-13,2,-23
7658,7658,1503600034426,-18,-6,-13,-10,-3,-2,-6,-4
7659,7659,1503600034432,45,7,-4,-2,-1,2,-3,5
7660,7660,1503600034440,5,-1,-8,-1,-4,-14,-4,-10
7661,7661,1503600034454,-5,8,0,-4,-4,9,1,-14
7662,7662,1503600034455,14,-2,-3,-4,-5,-8,0,1
7663,7663,1503600034462,4,-4,1,-2,-3,0,6,7
7664,7664,1503600034469,-8,-10,-1,2,6,19,16,6
8644,8644,1503600044129,-2,-2,-1,-7,-2,-8,-3,0
8645,8645,1503600044136,0,-4,-2,-2,-1,-1,5,-1
8646,8646,1503600044154,0,8,2,-2,-4,-7,-2,-1
8647,8647,1503600044159,-1,3,-1,-1,-2,-5,-1,3
8648,8648,1503600044167,2,18,13,4,-4,-4,-2,-2
8649,8649,1503600044181,-3,-9,-3,4,-1,0,0,1
8650,8650,1503600044190,-5,-6,-7,-3,-3,-9,-7,-2
8651,8651,1503600044196,-3,2,-4,-2,1,4,2,2
8652,8652,1503600044212,-4,-6,-3,7,-1,-4,-2,-2
8653,8653,1503600044219,-2,-4,-4,0,-1,-2,1,1
8654,8654,1503600044228,2,-1,-1,0,-2,0,-1,0
8655,8655,1503600044241,-4,-5,-3,1,-2,9,-3,2
8656,8656,1503600044253,-2,2,-3,-1,1,2,1,-2
8657,8657,1503600044257,-2,-4,-2,-2,-3,5,2,-1
8658,8658,1503600044272,-1,-4,-3,0,4,5,1,-2
8659,8659,1503600044279,8,-2,0,-1,-1,-5,-2,-4
8660,8660,1503600044288,5,-2,-1,-8,1,-3,1,-3
8661,8661,1503600044301,0,1,0,-2,-1,-13,-8,3
8662,8662,1503600044309,2,25,3,-1,3,2,2,-1
8663,8663,1503600044316,-5,-6,-5,-1,-3,-1,5,-1
8664,8664,1503600044332,-5,-9,-5,-2,-3,0,-2,0
8665,8665,1503600044339,-1,0,2,1,-8,-6,-4,-2
8666,8666,1503600044347,-1,11,3,2,0,4,11,2
8667,8667,1503600044362,1,-2,0,1,4,3,-7,-5
8668,8668,1503600044369,-2,-4,0,2,-2,-6,-12,-5
8669,8669,1503600044376,1,-6,-4,6,0,-17,-6,-3
8670,8670,1503600044392,2,12,-4,-2,0,1,-1,1
8671,8671,1503600044399,-6,-1,-5,-6,0,1,-4,-2
8672,8672,1503600044414,-7,-10,-3,1,0,-5,-1,-12
8673,8673,1503600044421,-6,16,8,-1,0,2,6,0
8674,8674,1503600044436,-5,5,1,-2,-1,4,5,3
8675,8675,1503600044437,4,1,0,-1,-4,-6,6,-3
8676,8676,1503600044454,-11,-12,-2,-2,-2,-2,-1,3
8677,8677,1503600044459,-1,-6,-4,-2,6,2,1,-1
8678,8678,1503600044467,12,-2,3,1,-3,0,2,4
8679,8679,1503600044481,2,-1,2,-3,-5,-1,-3,-2
8680,8680,1503600044489,-6,16,5,-1,-2,1,-6,2
8681,8681,1503600044496,6,-12,-3,-1,-1,5,0,2
8682,8682,1503600044512,8,14,0,1,2,0,3,2
8683,8683,1503600044519,2,17,-3,0,1,1,-4,1
8684,8684,1503600044527,1,-34,-8,-2,-3,-8,0,3
8685,8685,1503600044541,-19,-8,4,1,0,3,2,-10
8686,8686,1503600044551,0,17,7,-1,-1,1,0,-7
8687,8687,1503600044561,1,-14,-4,3,-1,-2,-1,1
8688,8688,1503600044572,1,5,-2,0,1,0,-2,-3
8689,8689,1503600044579,-10,6,1,0,0,2,-4,-5
8690,8690,1503600044589,4,-12,-5,0,1,12,3,1
8691,8691,1503600044601,7,3,-1,1,-2,-13,-1,-1
8692,8692,1503600044602,-1,-9,-6,-3,-2,3,-1,2
8693,8693,1503600044609,4,-18,-9,-5,-6,-4,-1,11
8694,8694,1503600044616,7,-3,-1,-1,-3,-6,-1,1
8695,8695,1503600044632,-2,4,0,-1,2,8,1,0
8696,8696,1503600044639,3,16,3,6,-4,-4,0,2
8697,8697,1503600044647,-2,-11,-5,-1,-3,-7,-3,-3
8698,8698,1503600044661,-3,7,6,0,4,2,0,-3
8699,8699,1503600044669,-5,-14,-7,-4,-6,-10,-5,8
8700,8700,1503600044676,6,-1,-7,-5,-3,0,-1,5
8701,8701,1503600044692,-11,-5,-3,-1,0,-4,-2,0
8702,8702,1503600044699,-4,0,-2,-8,4,2,-1,-5
8703,8703,1503600044707,3,-13,-1,-1,2,5,7,-5
8704,8704,1503600044724,-18,10,7,3,4,-2,-1,0
8705,8705,1503600044729,-12,9,8,3,3,-1,-2,-3
8706,8706,1503600044736,17,-8,-8,-1,-3,-2,0,7
8707,8707,1503600044752,-7,-3,-6,-1,-2,1,-1,3
8708,8708,1503600044763,-15,1,3,-1,-3,-6,-4,0
8709,8709,1503600044768,5,-2,0,-1,2,-1,-1,-4
8710,8710,1503600044781,8,16,-7,-9,-7,-7,-5,0
8711,8711,1503600044792,0,3,1,1,2,-5,-4,-5
8712,8712,1503600044796,6,-6,9,2,0,-6,-3,-3
8713,8713,1503600044812,-3,23,0,1,0,-7,-23,-6
8714,8714,1503600044819,-12,-16,-5,2,2,2,2,-1
8715,8715,1503600044829,0,-6,7,1,1,3,8,-1
8716,8716,1503600044841,8,0,-1,1,1,-2,-3,-15
8717,8717,1503600044849,-16,-23,-3,-1,-2,4,9,1
8718,8718,1503600044860,-9,-8,4,4,1,3,2,0
8719,8719,1503600044872,-5,-7,5,3,0,-3,-4,-6
8720,8720,1503600044879,-3,-19,-8,-6,-3,1,3,4
8721,8721,1503600044887,-3,-18,-2,-1,-1,0,0,-3
8722,8722,1503600044901,-13,15,5,-1,-2,0,-2,2
8723,8723,1503600044909,10,10,0,-1,-5,-2,1,1
8724,8724,1503600044916,10,5,-6,-5,0,6,1,-1
8725,8725,1503600044932,-3,0,-4,-3,-8,-8,-1,0
8726,8726,1503600044939,-13,2,-1,-7,-1,-6,-1,-17
8727,8727,1503600044947,10,-1,-2,-2,0,1,2,4
8728,8728,1503600044963,-4,-3,7,3,2,-1,0,-2
8729,8729,1503600044969,3,24,-1,-3,1,-2,-1,-2
8730,8730,1503600044976,6,-4,0,0,1,1,3,8
8731,8731,1503600044994,7,-6,1,4,5,3,0,0
8732,8732,1503600044999,17,-1,-6,1,1,0,-1,3
8733,8733,1503600045007,9,-1,-3,-1,0,2,0,4
8734,8734,1503600045021,7,26,10,11,1,1,-1,3
8735,8735,1503600045030,-20,11,2,-6,-2,-2,1,10
8736,8736,1503600045044,-8,-16,-12,-4,-1,-5,-4,1
8737,8737,1503600045052,7,2,2,0,-6,-4,2,-5
8738,8738,1503600045066,-33,-5,-4,-5,-2,20,-2,-14
8739,8739,1503600045074,4,-2,2,-1,-2,7,-2,2
8740,8740,1503600045081,15,0,-1,0,-2,0,-4,-5
8741,8741,1503600045089,-43,-25,-10,-3,-12,-9,-1,5
8742,8742,1503600045104,-27,-29,-8,-4,-4,-2,-2,3
8743,8743,1503600045112,38,12,5,12,4,-9,2,8
8744,8744,1503600045119,4,1,-4,-1,8,6,4,11
8745,8745,1503600045134,-7,10,6,-2,3,16,-2,-13
8746,8746,1503600045141,29,6,0,1,-5,-9,2,8
8747,8747,1503600045150,-9,1,0,-3,-2,-12,12,-7
8748,8748,1503600045165,-12,0,5,-2,0,-18,-1,8
8749,8749,1503600045172,-8,-5,-4,-3,0,9,2,-4
8750,8750,1503600045179,15,-4,0,-2,-1,-17,-4,-2
8751,8751,1503600045195,13,1,-1,-7,1,-16,6,-5
8752,8752,1503600045206,-2,16,2,1,-1,-3,-3,-5
8753,8753,1503600045209,10,4,-5,0,2,-10,-9,12
8754,8754,1503600045227,-1,-2,-1,0,-5,-3,-1,-25
8755,8755,1503600045232,11,-6,-8,-6,-1,1,-3,4
8756,8756,1503600045239,10,-4,12,2,-4,2,3,-1
8757,8757,1503600045254,-9,-16,-3,0,-3,5,0,10
8758,8758,1503600045263,-36,-5,-6,-3,3,16,3,4
8759,8759,1503600045269,-37,-2,3,0,-1,5,6,-4
8760,8760,1503600045284,-18,-17,-13,-6,3,5,-1,-3
8761,8761,1503600045294,1,10,-1,-9,-3,-13,-6,-2
8762,8762,1503600045299,16,10,18,7,3,-3,2,-2
8763,8763,1503600045314,18,-3,2,1,-3,-6,9,-9
8764,8764,1503600045321,-42,-5,-6,-2,2,19,1,-1
8765,8765,1503600045329,7,-1,3,3,1,-24,-8,-2
8766,8766,1503600045344,26,14,-4,0,-5,-22,-1,-15
8767,8767,1503600045352,5,4,-1,2,10,26,-11,-17
8768,8768,1503600045361,19,-12,-13,-5,-1,7,-2,4
8769,8769,1503600045374,16,1,6,3,-4,-9,-4,-3
8770,8770,1503600045381,18,-7,5,7,-4,-1,3,0
8771,8771,1503600045390,-2,-11,-2,-1,2,5,-1,4
8772,8772,1503600045404,-16,-2,10,-3,0,-4,-2,-6
8773,8773,1503600045412,6,6,-1,5,7,20,0,-6
8774,8774,1503600045419,-1,-3,-6,-4,-6,-12,5,19
8775,8775,1503600045434,-11,-2,-1,-1,-1,5,1,1
8776,8776,1503600045442,16,11,6,5,3,2,-23,-31
8777,8777,1503600045449,8,6,-5,-2,-5,-9,-9,8
8778,8778,1503600045464,-1,-2,-5,-2,-1,-16,-1,6
8779,8779,1503600045473,18,-7,-7,5,2,2,-3,-5
8780,8780,1503600045479,8,1,1,0,-8,-13,6,16
8781,8781,1503600045496,-2,2,1,-6,-6,0,6,5
8782,8782,1503600045502,-10,-24,-4,-2,3,11,-1,8
8783,8783,1503600045509,7,-5,7,3,1,1,1,1
8784,8784,1503600045524,-16,-1,-4,-4,0,-8,-6,4
8785,8785,1503600045532,-14,0,-4,-5,16,52,7,-2
8786,8786,1503600045539,-18,-9,-4,-3,0,7,7,1
8787,8787,1503600045554,-21,17,4,0,3,9,-7,6
8788,8788,1503600045564,23,40,-7,-3,-4,-8,-4,-6
9851,9851,1503600055971,-4,-27,-9,-2,-2,-6,-3,-1
9852,9852,1503600055979,6,-12,-6,-3,-3,-3,-1,-2
9853,9853,1503600055986,10,-11,-4,-1,-2,4,-1,1
9854,9854,1503600056001,-5,-4,-2,-1,-1,-5,-1,-5
9855,9855,1503600056008,-1,5,2,1,5,4,-1,-3
9856,9856,1503600056017,11,4,4,2,3,-1,0,-1
9857,9857,1503600056031,-2,0,2,-1,-1,0,4,7
9858,9858,1503600056039,-4,-19,-2,-4,-4,-5,-1,15
9859,9859,1503600056046,-8,-19,3,2,-2,-3,-1,-4
9860,9860,1503600056063,-7,1,-4,-3,-6,1,0,-3
9861,9861,1503600056070,-2,4,13,2,-4,-5,-3,-2
9862,9862,1503600056076,-12,-1,-2,0,4,-3,-2,-5
9863,9863,1503600056091,9,9,0,0,2,5,1,-1
9864,9864,1503600056099,0,0,5,-1,-1,1,-2,-1
9865,9865,1503600056106,0,12,0,1,-3,-4,-3,2
9866,9866,1503600056121,0,23,2,2,2,-2,-1,-3
9867,9867,1503600056129,-3,-6,-10,3,-2,0,-2,5
9868,9868,1503600056137,-1,-2,-4,-2,0,12,4,-8
9869,9869,1503600056151,-11,-4,2,-4,0,-2,-1,-4
9870,9870,1503600056160,4,-11,0,1,0,-3,-1,2
9871,9871,1503600056166,-16,-1,3,0,6,3,-2,-3
9872,9872,1503600056181,-11,-3,-1,-2,0,-4,-3,-4
9873,9873,1503600056188,11,-1,-5,-3,-4,-8,-7,-15
9874,9874,1503600056197,-3,1,6,4,-1,9,0,-15
9875,9875,1503600056211,-3,30,8,3,1,2,0,4
9876,9876,1503600056219,3,-4,-3,0,0,-4,-1,1
9877,9877,1503600056233,2,-3,-3,-5,-6,-5,0,0
9878,9878,1503600056241,-3,6,0,0,3,-8,-8,0
9879,9879,1503600056248,0,13,2,-2,-1,-6,1,-1
9880,9880,1503600056264,-1,-5,-5,-3,-2,-4,0,-14
9881,9881,1503600056272,-7,15,0,3,-1,0,0,1
9882,9882,1503600056279,20,-1,5,1,3,6,4,5
9883,9883,1503600056293,5,-4,-1,-4,5,5,1,1
9884,9884,1503600056301,11,-2,-4,-2,-6,-3,-5,2
9885,9885,1503600056308,-2,-10,-5,-2,-2,1,-3,3
9886,9886,1503600056323,-8,1,4,1,-1,-1,-2,2
9887,9887,1503600056331,-2,2,0,-2,-4,-2,1,-1
9888,9888,1503600056339,17,11,2,-1,0,-1,4,-17
9889,9889,1503600056353,2,-10,-5,-3,-2,-2,-2,1
9890,9890,1503600056363,4,-10,-5,-1,0,4,0,10
9891,9891,1503600056368,11,0,1,0,3,0,-2,4
9892,9892,1503600056369,-4,11,6,-5,-3,4,0,-6
9893,9893,1503600056383,-14,-7,-2,-1,-1,2,0,1
9894,9894,1503600056391,0,-4,-7,-3,-2,-3,-1,0
9895,9895,1503600056399,-9,-21,-12,-3,-5,1,1,2
9896,9896,1503600056413,8,-19,0,2,0,-4,2,1
9897,9897,1503600056421,-1,-4,-5,0,0,-1,0,-1
9898,9898,1503600056430,-6,-11,-6,1,0,-1,-3,-22
9899,9899,1503600056443,-7,-3,-2,0,0,-1,-1,2
9900,9900,1503600056451,-1,-2,1,7,-7,-6,0,1
9901,9901,1503600056459,-10,8,-1,-6,-3,-8,-3,-1
9902,9902,1503600056473,9,-5,-5,-3,3,4,-2,3
9903,9903,1503600056481,-2,7,7,2,0,-13,-1,9
9904,9904,1503600056488,3,-5,-5,-2,-2,1,-2,6
9905,9905,1503600056503,-16,-2,-4,-3,-1,1,-4,-4
9906,9906,1503600056511,-4,1,0,-3,0,-4,0,-1
9907,9907,1503600056519,-3,0,5,-9,-1,0,1,0
9908,9908,1503600056533,12,-2,-2,-2,-6,-1,-2,1
9909,9909,1503600056541,8,2,-2,0,-1,4,-1,-1
9910,9910,1503600056548,4,10,2,-1,0,-4,-1,2
9911,9911,1503600056570,2,-5,-1,0,2,-6,-1,0
9912,9912,1503600056571,-4,10,-1,0,0,1,-2,-9
9913,9913,1503600056579,-23,-6,-1,-2,-1,-13,-7,-6
9914,9914,1503600056593,-13,-10,0,2,-4,-1,6,3
9915,9915,1503600056601,2,2,-3,2,1,7,2,0
9916,9916,1503600056608,-1,7,5,0,2,4,-1,0
9917,9917,1503600056623,10,3,-3,-1,-3,9,5,4
9918,9918,1503600056634,0,-11,-4,-1,-2,-6,-1,4
9919,9919,1503600056639,16,-15,-6,-2,-3,-4,-1,3
9920,9920,1503600056653,-9,-10,-1,0,4,3,-3,0
9921,9921,1503600056663,-5,-1,1,0,1,10,4,-1
9922,9922,1503600056668,-11,8,-1,-3,0,-5,1,-5
9923,9923,1503600056683,7,19,5,5,0,2,-1,-6
9924,9924,1503600056691,2,17,1,-2,-1,-7,-11,0
9925,9925,1503600056700,-3,1,8,0,3,1,-4,2
9926,9926,1503600056713,-3,-16,-3,1,3,0,3,-4
9927,9927,1503600056721,-3,19,3,4,2,-3,2,-1
9928,9928,1503600056731,7,7,2,0,-1,7,4,4
9929,9929,1503600056743,-4,-9,-3,-14,-2,0,-5,-2
9930,9930,1503600056751,-1,-1,-3,-3,-1,-3,-3,-5
9931,9931,1503600056759,33,12,1,1,0,-7,-3,4
9932,9932,1503600056773,-13,-12,3,-1,-1,6,-3,2
9933,9933,1503600056781,-1,-11,-5,2,-1,14,4,6
9934,9934,1503600056788,0,-8,-6,0,0,-1,-3,1
9935,9935,1503600056803,-15,-8,0,3,3,4,-3,-7
9936,9936,1503600056811,-5,2,-4,-11,-8,-2,2,-1
9937,9937,1503600056819,-4,-1,-7,-6,-1,-8,1,-2
9938,9938,1503600056833,-4,9,4,-2,4,-12,1,0
9939,9939,1503600056841,-8,1,1,0,-2,13,3,-1
9940,9940,1503600056848,-2,-12,-13,-7,-10,-10,-4,3
9941,9941,1503600056866,-5,8,6,13,2,2,-3,-4
9942,9942,1503600056871,6,16,7,4,4,12,3,0
9943,9943,1503600056879,-4,-11,-7,-4,-3,2,1,-2
9944,9944,1503600056894,5,1,-4,1,1,-6,-16,-9
9945,9945,1503600056901,-1,-4,-3,0,-6,-21,-5,1
9946,9946,1503600056908,0,0,1,0,1,-3,-1,1
9947,9947,1503600056923,1,-4,4,0,0,3,15,3
9948,9948,1503600056933,4,0,-1,0,-1,7,3,-1
9949,9949,1503600056939,-1,-1,-7,-5,-3,-11,-8,-2
9950,9950,1503600056953,3,7,0,4,0,5,2,2
9951,9951,1503600056961,2,17,11,1,1,4,-6,-2
9952,9952,1503600056968,4,2,-3,-5,-7,-2,1,-1
9953,9953,1503600056983,-6,-4,-6,-2,1,10,-10,5
9954,9954,1503600056991,-13,-18,-3,-1,2,-1,-1,0
9955,9955,1503600057000,0,-11,-3,-2,-1,-7,0,2
9956,9956,1503600057013,-2,-6,2,4,2,-6,0,-3
9957,9957,1503600057021,-9,2,-1,-5,-3,-4,-2,-2
9958,9958,1503600057022,2,-7,2,3,1,2,2,-1
9959,9959,1503600057028,2,-6,-2,3,4,12,6,-6
9960,9960,1503600057043,-1,-4,-6,-6,-3,-3,-6,-5
9961,9961,1503600057051,11,6,7,4,2,14,4,7
9962,9962,1503600057059,-3,-1,-3,-3,0,0,-1,1
9963,9963,1503600057074,0,19,6,2,3,35,5,0
9964,9964,1503600057089,-4,6,3,-6,-5,-3,12,-1
9965,9965,1503600057090,-9,-4,-3,-2,-4,-11,-6,-8
9966,9966,1503600057103,4,3,0,-2,6,0,-5,-4
9967,9967,1503600057111,-6,-3,0,0,-2,-12,-1,3
9968,9968,1503600057126,-2,-7,0,2,0,1,4,2
9969,9969,1503600057134,10,22,17,7,-1,-15,1,3
9970,9970,1503600057142,7,11,6,4,2,-14,-1,3
9971,9971,1503600057156,10,-16,-11,-6,-5,-4,17,1
9972,9972,1503600057163,-13,-15,-7,-2,-6,-4,-4,-5
9973,9973,1503600057178,-10,-9,-8,-6,8,13,-5,-6
9974,9974,1503600057186,-7,-2,-5,-7,-9,-16,-2,-1
9975,9975,1503600057194,-14,3,0,-1,1,-1,1,-2
9976,9976,1503600057203,-1,-3,2,3,5,30,-5,-22
9977,9977,1503600057215,-8,-28,-12,-6,-4,-1,-1,3
9978,9978,1503600057223,1,39,17,4,1,-6,3,-1
9979,9979,1503600057234,-15,-7,-4,2,2,5,7,-30
9980,9980,1503600057246,-39,-31,-7,-5,-3,-3,-6,10
9981,9981,1503600057254,10,13,2,0,2,-13,-11,3
9982,9982,1503600057262,11,9,0,0,-11,-23,-2,4
9983,9983,1503600057275,0,2,0,-3,-12,-16,1,12
9984,9984,1503600057283,-10,-11,-6,2,6,5,1,3
9985,9985,1503600057291,13,9,3,2,0,-2,0,1
9986,9986,1503600057306,12,-1,-1,0,-3,-20,-3,-4
9987,9987,1503600057314,-34,-13,-6,-4,-4,2,-10,-9
9988,9988,1503600057321,-13,-6,-3,-3,-2,9,-4,4
9989,9989,1503600057336,-5,6,4,8,7,-8,-3,2
9990,9990,1503600057344,27,2,-2,1,10,17,1,-21
9991,9991,1503600057351,20,7,0,-3,3,4,2,-11
9992,9992,1503600057368,-7,-5,-3,-1,1,16,-2,3
9993,9993,1503600057374,11,14,0,-3,0,4,0,8
9994,9994,1503600057381,14,5,-6,7,-3,-5,4,-5
9995,9995,1503600057395,5,-1,-2,-5,-11,-5,11,16
9996,9996,1503600057404,-1,3,-2,-7,1,16,5,0
9997,9997,1503600057411,-4,-6,3,1,-7,-18,-10,-11
9998,9998,1503600057426,-9,-12,0,-2,-3,-14,-1,8
9999,9999,1503600057435,-21,-23,-10,-10,-5,6,0,4
10000,10000,1503600057442,7,8,4,2,1,5,2,8
10001,10001,1503600057455,-11,-10,-1,2,-1,-6,2,11
10002,10002,1503600057463,-2,-10,-7,-5,-2,-18,-3,5
10003,10003,1503600057471,3,-4,-2,-1,-5,-16,-31,-9
10004,10004,1503600057486,-12,-5,-4,0,-9,6,-3,-6
10005,10005,1503600057493,-4,-1,0,1,-1,-38,2,8
10006,10006,1503600057502,22,14,0,-6,-8,-5,1,-12
10007,10007,1503600057515,-2,1,3,5,19,35,-27,-10
10008,10008,1503600057523,2,-2,0,-2,-5,-21,2,12
10009,10009,1503600057531,13,14,6,1,-1,-9,-6,-1
10010,10010,1503600057546,-20,-21,-6,-2,4,21,5,7
10011,10011,1503600057553,20,-2,-6,-2,1,10,15,-5
10012,10012,1503600057562,0,7,0,-2,12,9,13,14
10013,10013,1503600057577,4,28,24,7,-2,1,5,1
10014,10014,1503600057583,1,0,-2,-1,3,-2,-10,-12
10015,10015,1503600057591,-11,-15,-12,-4,3,8,0,-4
10016,10016,1503600057606,-3,5,5,1,-7,-25,-2,-2
10017,10017,1503600057613,-11,-5,-3,6,10,3,1,18
10018,10018,1503600057621,4,4,-1,-2,-3,-16,-8,0
10019,10019,1503600057636,-4,1,-3,-3,-13,-4,7,-9
10020,10020,1503600057646,6,-6,3,1,-1,-9,-5,-2
10021,10021,1503600057651,-1,-6,-6,-3,1,-2,-7,-5
10022,10022,1503600057666,12,10,1,0,-10,-13,-2,-4
10023,10023,1503600057674,10,7,-1,-6,-1,7,11,2
10024,10024,1503600057681,3,22,1,-1,2,9,-9,8
10025,10025,1503600057695,-7,2,-3,3,-8,-15,-21,-13
10026,10026,1503600057703,3,-7,-1,1,4,5,3,0
10027,10027,1503600057711,-7,-13,-3,-6,-4,-3,1,14
10028,10028,1503600057726,-1,-2,4,7,1,5,-6,-5
10029,10029,1503600057733,1,-5,-10,-8,-6,9,4,1
10030,10030,1503600057741,-35,-19,-15,-6,-6,4,6,10
10031,10031,1503600057755,11,8,-2,-2,2,2,0,-4
10032,10032,1503600057763,4,-13,-3,-1,1,8,5,7
10033,10033,1503600057771,4,8,2,3,2,18,-17,-2
10034,10034,1503600057786,-12,-3,3,0,-2,3,5,7
10035,10035,1503600057793,2,-7,-2,-1,-1,-8,0,-11
10036,10036,1503600057803,-14,-15,-7,-4,-10,-7,-6,-5
10037,10037,1503600057815,-3,-6,-1,2,-6,0,2,5
10038,10038,1503600057823,7,1,6,5,7,5,2,-18
10039,10039,1503600057831,-2,-3,3,-1,-3,-6,3,2
10040,10040,1503600057846,11,46,15,5,3,7,1,-8
10041,10041,1503600057853,-6,-6,-4,-1,2,-6,1,-9
10042,10042,1503600057861,-23,-26,-19,-7,-5,-14,-39,-2
10043,10043,1503600057875,20,14,2,0,0,0,14,-14
10044,10044,1503600057883,34,-2,-1,-3,0,4,7,-5
10045,10045,1503600057891,-12,-6,-2,0,1,10,4,12
10046,10046,1503600057906,13,5,-3,-4,-6,6,7,-4
10047,10047,1503600057913,-1,-13,-8,-2,3,2,4,-4
10048,10048,1503600057921,-19,6,-2,1,0,-1,-5,-1
10049,10049,1503600057937,7,5,6,3,4,-3,0,-1
10050,10050,1503600057943,-2,-13,-9,0,2,-1,-4,-1
10051,10051,1503600057951,-6,11,11,3,-2,-8,-5,9
10052,10052,1503600057966,27,16,18,2,-3,0,8,1
10053,10053,1503600057973,-14,6,-4,-8,-7,20,8,0
10054,10054,1503600057981,-21,13,-5,-2,-11,-37,0,3
10055,10055,1503600057995,11,-8,-9,-1,1,-9,1,10
10056,10056,1503600058003,4,-5,-7,-1,7,11,5,-11
10057,10057,1503600058018,-8,12,8,1,0,-6,-6,-7
10058,10058,1503600058026,-7,-6,2,-2,2,-4,-11,-2
10059,10059,1503600058033,13,8,5,4,6,21,7,12
10060,10060,1503600058041,-35,-21,-7,-2,10,27,4,-11
10061,10061,1503600058055,-13,-1,5,1,-2,-7,-8,18
10062,10062,1503600058063,4,-5,1,1,-1,-15,3,6
10063,10063,1503600058078,19,-3,-7,-2,2,4,-2,1
10064,10064,1503600058086,7,-6,-4,-5,1,6,-5,5
10065,10065,1503600058093,-1,4,-2,-3,-11,-16,4,-3
10066,10066,1503600058108,5,-19,-11,-2,0,1,0,3
10067,10067,1503600058115,-8,-11,0,2,1,-23,2,2
10068,10068,1503600058123,6,-5,-10,-3,-1,9,4,3
10069,10069,1503600058139,-12,-12,0,1,-4,-9,-14,-8
10070,10070,1503600058147,1,1,9,4,2,-6,13,8
10071,10071,1503600058153,-14,-15,-15,-10,-4,-3,5,-3
10072,10072,1503600058168,-1,-7,2,-1,-9,8,-1,-5
10073,10073,1503600058175,-11,10,-3,-5,-2,5,-3,-11
10074,10074,1503600058183,-5,2,-5,-4,-3,-4,-4,-6
10075,10075,1503600058198,9,-4,-2,1,-3,11,-7,-9
10076,10076,1503600058206,-37,-9,1,-1,1,-5,-3,-1
10077,10077,1503600058214,2,7,2,-1,3,6,-6,-13
10078,10078,1503600058228,9,3,11,0,-2,-3,8,-6
10079,10079,1503600058235,-16,-24,-7,-1,-4,5,9,-14
10080,10080,1503600058243,25,31,13,2,-1,0,-1,-1
10081,10081,1503600058258,38,9,-6,-3,-2,-3,0,9
10082,10082,1503600058266,-8,-21,-12,-2,-1,-3,-3,3
10083,10083,1503600058273,-12,19,19,2,-1,-6,-2,-21
10084,10084,1503600058274,-5,-8,-7,-3,0,-3,-4,-1
10085,10085,1503600058288,14,-12,-8,4,-1,-1,-5,2
10086,10086,1503600058295,1,-1,1,-4,1,-4,-3,2
10087,10087,1503600058305,12,26,11,3,4,1,0,-10
10088,10088,1503600058318,-3,-7,-2,-1,-11,-19,3,8
10089,10089,1503600058326,16,28,15,-2,0,3,-6,4
10090,10090,1503600058333,-7,-1,-10,0,6,6,-2,-3
10091,10091,1503600058349,12,34,7,1,0,-1,-1,-1
10092,10092,1503600058355,-44,-10,-2,-3,0,-17,-4,-10
10093,10093,1503600058363,-22,-14,-3,0,-1,0,-15,-40
10094,10094,1503600058382,21,14,7,1,0,0,-4,-1
10095,10095,1503600058386,10,21,-3,-3,0,2,9,22
10096,10096,1503600058393,8,0,-2,1,4,0,-5,-19
10097,10097,1503600058409,-5,-13,-12,-2,-3,-2,-2,0
10098,10098,1503600058416,3,4,10,3,2,2,4,0
10099,10099,1503600058423,10,-11,3,1,5,3,-5,-1
10100,10100,1503600058440,34,17,10,4,13,34,9,27
10101,10101,1503600058448,-6,-19,-9,-6,-5,9,-14,-2
10102,10102,1503600058454,11,15,11,5,3,5,1,8
10103,10103,1503600058468,34,22,5,-1,-3,5,4,3
10104,10104,1503600058476,-30,23,5,2,0,-2,0,1
10105,10105,1503600058483,-11,-13,-3,6,-5,-9,2,9
10106,10106,1503600058498,-4,3,0,-1,-3,-3,2,-2
10107,10107,1503600058507,-8,-5,-2,-5,1,17,4,-8
10108,10108,1503600058523,13,17,0,-1,4,3,1,8
10109,10109,1503600058524,-23,-23,-9,-4,-11,-11,-4,4
10110,10110,1503600058528,-13,-4,3,1,-5,0,5,4
10111,10111,1503600058535,24,-4,1,5,-6,-6,-6,-37
10112,10112,1503600058544,-17,-5,-7,-6,-4,-10,-3,-6
10113,10113,1503600058558,-7,-3,2,-5,-1,-8,-4,0
10114,10114,1503600058566,9,-18,-7,-1,2,-6,5,-2
10115,10115,1503600058574,-1,-1,18,1,-6,-7,0,10
10116,10116,1503600058588,3,1,-1,-5,4,0,-3,-9
10117,10117,1503600058595,4,-16,-7,-2,-2,8,-4,22
10118,10118,1503600058609,-22,14,3,0,2,-4,0,0
10119,10119,1503600058619,-6,-12,-6,0,5,4,-1,-2
10120,10120,1503600058629,10,5,-18,-6,-2,1,-5,-5
10121,10121,1503600058633,19,3,-13,-6,-3,-7,4,1
10122,10122,1503600058649,-11,-7,0,-2,-15,-7,-1,1
10123,10123,1503600058656,46,3,-2,-4,-10,-15,7,-12
10124,10124,1503600058663,4,14,10,4,7,-4,3,-2
10125,10125,1503600058678,-26,23,6,1,2,-7,-4,9
10126,10126,1503600058686,-8,7,29,-5,-1,-3,1,-4
10127,10127,1503600058693,-21,-6,-7,-4,2,8,-3,-18
10128,10128,1503600058708,-4,-5,-3,-1,2,-17,10,9
10129,10129,1503600058716,-37,-11,-4,-3,0,4,3,-9
10130,10130,1503600058723,-3,14,4,1,-3,-5,-9,-7
10131,10131,1503600058738,6,0,-4,4,3,1,-1,7
10132,10132,1503600058746,-7,-10,-14,0,-2,-2,-8,16
10133,10133,1503600058753,-21,-17,-8,-3,-5,-9,-3,-2
10134,10134,1503600058772,5,-6,-5,-5,-7,-15,-6,11
10135,10135,1503600058773,0,8,-2,-2,-1,-5,0,-12
10136,10136,1503600058778,0,11,13,4,7,17,18,-11
10137,10137,1503600058784,17,0,-5,-2,3,16,0,0
10138,10138,1503600058798,-2,6,-8,3,0,-4,-8,8
10139,10139,1503600058808,-8,11,15,1,0,3,6,-3
10140,10140,1503600058809,2,-21,-8,1,3,4,-3,-12
10141,10141,1503600058813,4,-24,-9,-6,-8,9,-7,6
10142,10142,1503600058828,2,-24,-10,-1,2,6,1,-4
10143,10143,1503600058835,-6,-11,-5,0,-1,-10,-9,-9
10144,10144,1503600058844,-19,-5,1,0,-6,-9,4,3
10145,10145,1503600058858,25,41,32,7,6,9,-5,-26
10146,10146,1503600058866,5,4,-2,0,5,5,-1,14
10147,10147,1503600058875,-2,-33,-19,-5,2,1,-2,9
10148,10148,1503600058888,23,10,5,3,-1,0,7,-5
11224,11224,1503600069418,5,4,0,0,2,1,-2,-4
11225,11225,1503600069424,2,25,6,1,0,-1,0,-1
11226,11226,1503600069433,-3,-4,-2,-2,0,0,-1,-2
11227,11227,1503600069447,-2,-4,1,0,0,0,-2,-3
11228,11228,1503600069455,0,15,-3,-1,0,-1,-1,-6
11229,11229,1503600069466,5,-15,-5,0,-1,-3,-2,2
11230,11230,1503600069478,0,-12,-1,-6,-3,0,-1,4
11231,11231,1503600069484,-5,-5,1,2,-1,-2,0,7
11232,11232,1503600069493,0,-3,-1,-1,-1,1,1,-2
11233,11233,1503600069507,-4,5,2,-1,-12,-5,-1,0
11234,11234,1503600069515,-4,3,-2,-1,1,-1,0,-2
11235,11235,1503600069523,2,-5,-2,0,5,-1,-2,-5
11236,11236,1503600069538,1,16,2,2,-1,-1,-3,1
11237,11237,1503600069546,0,0,-5,-2,1,0,-1,-5
11238,11238,1503600069553,0,6,3,-2,-3,-2,1,2
11239,11239,1503600069568,-1,15,2,1,-2,-1,-2,-3
11240,11240,1503600069575,-2,-11,-4,-1,-3,-2,-1,5
11241,11241,1503600069590,-1,-14,-1,1,0,1,1,-3
11242,11242,1503600069599,1,-7,-1,0,-1,-1,1,2
11243,11243,1503600069607,2,-2,-4,-3,1,2,-1,1
11244,11244,1503600069613,-3,21,6,0,-4,1,-2,-18
11245,11245,1503600069628,1,1,3,-2,0,0,0,-2
11246,11246,1503600069635,-1,-13,-1,0,3,1,-1,5
11247,11247,1503600069650,-3,-6,-4,0,0,3,-1,-2
11248,11248,1503600069659,2,-12,-3,-2,0,0,0,1
11249,11249,1503600069669,2,-7,3,-1,-2,-3,0,-3
11250,11250,1503600069673,-3,-9,-2,-3,-2,0,-2,-2
11251,11251,1503600069688,-1,2,2,-2,0,-1,0,0
11252,11252,1503600069695,-1,2,-1,0,-2,-3,1,0
11253,11253,1503600069710,-2,-1,1,0,1,0,-3,-2
11254,11254,1503600069718,0,-15,-2,1,1,-1,-1,1
11255,11255,1503600069726,-2,-2,-1,-1,3,-3,0,0
11256,11256,1503600069733,-2,-9,-4,0,2,-1,0,-1
11257,11257,1503600069748,3,-5,-3,-3,-5,-2,0,0
11258,11258,1503600069755,1,-1,0,-7,-2,-2,-2,-1
11259,11259,1503600069771,-2,8,3,1,-1,0,-1,-3
11260,11260,1503600069778,0,14,4,-2,-3,-3,-1,-4
11261,11261,1503600069786,-3,0,-2,-2,-3,-3,1,0
11262,11262,1503600069793,-2,1,-3,-2,1,0,-2,1
11263,11263,1503600069809,-1,-2,-2,1,0,1,-1,2
11264,11264,1503600069815,-4,-16,-3,2,0,1,0,2
11265,11265,1503600069834,-4,-6,-1,-1,-3,-2,2,2
11266,11266,1503600069839,1,8,3,1,1,2,0,1
11267,11267,1503600069846,-1,10,1,0,2,0,-1,-2
11268,11268,1503600069853,-1,-6,0,1,-3,-2,-1,-1
11269,11269,1503600069868,-5,-4,-2,-3,-9,-2,0,1
11270,11270,1503600069875,0,1,0,-1,1,-1,0,1
11271,11271,1503600069891,0,4,1,1,1,0,-2,-1
11272,11272,1503600069900,0,2,-4,-2,-4,-1,-2,-1
11273,11273,1503600069906,3,1,-2,-1,1,1,-2,1
11274,11274,1503600069913,0,-18,-5,0,1,3,-1,2
11275,11275,1503600069928,-1,-5,-3,2,1,0,-2,-4
11276,11276,1503600069935,-2,-7,-2,-1,-2,-1,-2,0
11277,11277,1503600069951,-1,-8,-5,-4,-3,0,-2,2
11278,11278,1503600069958,1,5,-2,-1,0,0,0,0
11279,11279,1503600069967,-1,5,-3,-1,0,-1,1,-4
11280,11280,1503600069974,-3,6,-2,-2,-1,-3,-1,3
11281,11281,1503600069988,0,-4,-1,-1,0,-1,-1,-1
11282,11282,1503600069997,2,9,1,2,3,0,-1,-3
11283,11283,1503600070011,-1,1,2,0,1,-1,-2,-1
11284,11284,1503600070018,-2,3,0,-1,-3,-4,-2,-2
11285,11285,1503600070034,-1,7,1,0,-1,0,-1,-2
11286,11286,1503600070048,-3,1,-1,-1,2,0,-2,-2
11287,11287,1503600070055,1,-8,-2,-1,-2,2,0,-1
11288,11288,1503600070072,2,4,6,2,0,1,2,2
11289,11289,1503600070078,-4,-6,-2,-1,-1,-1,0,1
11290,11290,1503600070086,2,1,-2,-1,3,2,-3,-1
11291,11291,1503600070093,1,3,0,-2,-3,-1,-1,-3
11292,11292,1503600070109,-1,1,-1,3,4,-1,2,-1
11293,11293,1503600070115,-1,3,-1,0,-1,-1,0,-2
11294,11294,1503600070131,1,-1,2,4,-4,-1,-2,-1
11295,11295,1503600070138,-1,-2,-1,-2,-3,-1,0,1
11296,11296,1503600070146,0,-3,2,-2,0,-3,0,0
11297,11297,1503600070153,-4,-2,-2,-4,-3,-4,-2,-5
11298,11298,1503600070169,-1,-2,-4,-6,-1,-3,-2,1
11299,11299,1503600070176,3,-1,4,1,-5,2,1,1
11300,11300,1503600070191,-3,-3,-4,-2,-3,-3,-3,-2
11301,11301,1503600070198,2,2,-2,-1,0,-3,-2,-2
11302,11302,1503600070206,-1,3,5,7,-2,-2,-1,0
11303,11303,1503600070220,-4,-9,-2,-1,1,0,0,-1
11304,11304,1503600070228,-1,-2,-2,-3,1,-3,8,2
11305,11305,1503600070235,3,0,1,3,2,0,0,-1
11306,11306,1503600070251,-5,-6,-2,-7,-4,-1,-2,-3
11307,11307,1503600070258,4,9,3,2,0,0,-1,2
11308,11308,1503600070269,-1,-5,-5,4,-2,7,6,2
11309,11309,1503600070280,0,5,1,-4,2,0,-3,2
11310,11310,1503600070288,-3,-2,1,-3,-1,-2,0,-5
11311,11311,1503600070295,0,4,-2,-1,-3,-2,-2,-1
11312,11312,1503600070311,-1,3,-4,-1,-2,6,-5,-3
11313,11313,1503600070318,-5,-2,0,3,0,1,3,-3
11314,11314,1503600070326,4,7,0,1,-1,-2,-4,3
11315,11315,1503600070340,-2,-6,-3,-7,0,0,-2,0
11316,11316,1503600070348,1,12,1,-3,0,-2,-1,-4
11317,11317,1503600070355,0,-5,-4,-3,-1,1,-1,4
11318,11318,1503600070371,0,23,10,1,4,0,-3,-3
11319,11319,1503600070378,0,13,9,4,3,-1,-2,-2
11320,11320,1503600070386,-1,-25,-11,-4,-4,-3,1,1
11321,11321,1503600070402,-3,-11,-8,0,-3,-7,-8,-3
11322,11322,1503600070408,1,-4,3,-1,1,-1,-1,-3
11323,11323,1503600070415,0,-2,-2,0,-1,0,-1,-1
11324,11324,1503600070431,3,6,-4,-1,-1,-3,4,5
11325,11325,1503600070438,1,0,0,-1,-1,-1,-1,-2
11326,11326,1503600070446,-6,-10,3,0,-4,-3,-2,-5
11327,11327,1503600070460,8,3,0,-2,0,-3,0,-2
11328,11328,1503600070469,-5,-4,-7,-4,1,-2,-3,3
11329,11329,1503600070475,-2,-2,-3,0,-1,2,0,-8
11330,11330,1503600070491,-3,-10,-8,-2,-3,6,0,1
11331,11331,1503600070498,-4,3,-2,0,-5,-6,-3,2
11332,11332,1503600070510,2,0,1,-2,-1,-3,0,-2
11333,11333,1503600070520,-4,-2,0,-1,3,10,2,-1
11334,11334,1503600070528,4,-2,1,2,2,13,18,2
11335,11335,1503600070536,-17,-16,-2,-1,-1,-2,-3,0
11336,11336,1503600070551,-42,1,0,-3,-3,-5,-5,-1
11337,11337,1503600070558,-29,-11,-4,-2,1,-2,1,-3
11338,11338,1503600070566,18,-8,1,-1,0,-4,-6,0
11339,11339,1503600070580,14,-1,-3,3,0,-4,3,-7
11340,11340,1503600070588,6,23,7,-1,1,-1,-7,2
11341,11341,1503600070595,17,6,4,-2,-2,-3,-2,5
11342,11342,1503600070611,6,-2,2,1,-4,-4,-4,-2
11343,11343,1503600070618,-25,0,0,-2,2,8,4,3
11344,11344,1503600070626,-10,-12,-5,-1,0,-3,-5,-3
11345,11345,1503600070640,23,19,2,-1,-3,-7,-1,3
11346,11346,1503600070648,12,5,-4,4,3,4,10,-20
11347,11347,1503600070655,11,2,2,3,6,1,-6,-4
11348,11348,1503600070672,10,-8,-2,-3,-5,-4,-4,-11
11349,11349,1503600070678,5,-5,1,0,2,4,1,3
11350,11350,1503600070686,-20,1,0,-1,-1,20,1,-3
11351,11351,1503600070700,-2,-5,-4,-1,-5,-3,-2,-1
11352,11352,1503600070708,15,22,5,0,5,1,-3,0
11353,11353,1503600070715,-15,-16,-3,4,1,1,9,3
11354,11354,1503600070731,7,-4,-4,-4,-4,-8,-7,7
11355,11355,1503600070738,-19,-7,-8,-6,-1,-6,-9,-5
11356,11356,1503600070746,-5,5,3,-1,-3,-8,-4,6
11357,11357,1503600070760,5,-2,-3,1,3,10,10,8
11358,11358,1503600070774,30,3,-5,-1,-2,22,-1,6
11359,11359,1503600070775,13,26,8,-2,0,-5,-6,-5
11360,11360,1503600070791,7,-14,4,2,1,-9,-3,-12
11361,11361,1503600070798,17,8,-2,0,-1,7,3,2
11362,11362,1503600070806,-16,-14,-14,-3,-2,-2,-8,-6
11363,11363,1503600070820,-4,-14,-3,5,0,-10,-2,-3
11364,11364,1503600070828,-27,-2,-8,-2,0,0,3,4
11365,11365,1503600070838,12,19,-3,-8,-6,-4,-7,-11
11366,11366,1503600070851,6,-10,0,5,4,-11,3,9
11367,11367,1503600070866,-6,2,1,1,1,-13,-7,-8
11368,11368,1503600070880,-16,-17,-3,-4,-3,-13,3,13
11369,11369,1503600070888,-4,1,4,-2,-2,25,-23,4
11370,11370,1503600070895,2,-4,-2,-5,-14,-4,-8,-12
11371,11371,1503600070911,8,8,0,-3,-5,-12,8,5
11372,11372,1503600070918,-30,-32,0,6,4,5,0,-6
11373,11373,1503600070926,13,-17,-5,-2,-1,5,1,-5
11374,11374,1503600070940,5,54,31,7,6,-8,1,-8
11375,11375,1503600070949,-7,-7,-6,-3,-2,-8,3,4
11376,11376,1503600070955,-14,-19,-10,-3,-3,-15,0,1
11377,11377,1503600070972,2,12,3,-3,0,-15,-13,-7
11378,11378,1503600070978,6,-3,-5,-4,-4,-3,-5,7
11379,11379,1503600070986,6,-9,-2,-4,-8,-9,5,7
11380,11380,1503600071000,24,-9,-4,0,0,13,3,2
11381,11381,1503600071009,-33,-4,4,0,0,-4,3,0
11382,11382,1503600071015,4,-4,3,-1,-2,-13,-14,-33
11383,11383,1503600071031,-3,-12,2,3,1,4,-1,1
11384,11384,1503600071038,-1,-25,-12,-4,3,11,1,4
11385,11385,1503600071048,6,4,-2,-1,-2,-7,-6,-6
11386,11386,1503600071067,-8,9,6,0,-1,-2,-2,1
11387,11387,1503600071069,-30,-18,-4,-2,3,13,11,1
11388,11388,1503600071075,10,-4,-9,0,3,8,2,3
11389,11389,1503600071091,4,-24,-10,4,2,10,9,-1
11390,11390,1503600071098,9,35,7,3,4,-2,5,4
11391,11391,1503600071107,7,-5,-6,-3,-1,-8,-2,5
11392,11392,1503600071120,-25,-21,-6,-3,-3,0,0,5
11393,11393,1503600071128,27,17,2,0,-1,-5,19,9
11394,11394,1503600071143,-6,0,-5,-6,-3,0,-5,0
11395,11395,1503600071151,-2,12,9,2,1,6,-2,-12
11396,11396,1503600071158,25,5,3,2,3,3,4,8
11397,11397,1503600071173,-18,23,-3,-5,-6,-1,5,-33
11398,11398,1503600071181,-11,8,4,1,-2,-8,-2,1
11399,11399,1503600071188,-3,1,2,-3,-3,-1,-7,10
11400,11400,1503600071203,-2,-1,-7,-6,3,-3,-5,-5
11401,11401,1503600071211,9,7,-3,-2,3,2,-3,18
11402,11402,1503600071217,7,7,9,4,0,-2,2,6
11403,11403,1503600071233,1,15,5,3,0,1,-3,-8
11404,11404,1503600071240,5,-9,3,-1,-3,-6,1,1
11405,11405,1503600071249,-24,-9,-6,-2,-5,-8,-4,4
11406,11406,1503600071263,-2,-8,-12,-2,-5,-8,1,-1
11407,11407,1503600071278,-15,13,15,2,1,-4,-4,9
11408,11408,1503600071279,-6,11,6,-3,1,-2,3,12
11409,11409,1503600071293,-5,9,3,2,2,15,-6,-2
11410,11410,1503600071300,1,-11,-7,-3,3,11,4,-6
11411,11411,1503600071316,6,-3,-1,-4,-6,18,4,-3
11412,11412,1503600071322,54,12,4,3,3,-4,0,-25
11413,11413,1503600071331,29,-19,-11,-4,-2,-7,0,0
11414,11414,1503600071339,-15,4,9,2,4,-2,3,-2
11415,11415,1503600071340,8,33,4,1,-4,-11,-7,11
11416,11416,1503600071353,38,13,18,5,3,-7,-1,-1
11417,11417,1503600071360,-21,-18,-8,-3,-1,7,-3,-8
11418,11418,1503600071368,-31,0,-7,-1,-1,-11,-5,3
11419,11419,1503600071383,3,5,-1,1,-8,-3,1,3
11420,11420,1503600071391,-38,1,8,5,3,-6,-5,-5
11421,11421,1503600071398,-20,-23,-9,0,-1,-3,-4,0
11422,11422,1503600071413,25,1,-5,-3,1,16,2,4
11423,11423,1503600071420,-9,-7,-5,-6,-2,-15,-5,8
11424,11424,1503600071428,7,-9,-10,-4,-3,-5,-1,-1
11425,11425,1503600071444,-10,10,4,2,-6,-9,-1,4
11426,11426,1503600071451,16,-4,1,3,4,-7,1,-11
11427,11427,1503600071457,22,53,34,6,3,-2,4,-5
11428,11428,1503600071474,-8,-4,-2,-3,-13,-8,-3,-7
11429,11429,1503600071480,-23,-29,-16,3,-3,-3,-3,-5
11430,11430,1503600071488,-1,7,-6,-5,1,-3,3,6
11431,11431,1503600071503,8,-12,-12,-9,-2,5,1,3
11432,11432,1503600071511,-3,-28,-6,3,1,-29,-6,-8
11433,11433,1503600071518,-20,-4,-2,1,5,9,-1,-3
11434,11434,1503600071533,13,8,3,-2,-3,-5,3,-20
11435,11435,1503600071541,0,-6,-2,2,2,2,0,4
11436,11436,1503600071549,-5,6,1,-3,-3,6,-6,4
11437,11437,1503600071563,-11,-4,-4,-1,9,37,2,1
11438,11438,1503600071571,3,-8,-2,-1,4,5,4,3
11439,11439,1503600071578,22,4,5,1,0,6,-4,4
11440,11440,1503600071593,-10,-1,-5,5,-2,-9,-1,12
11441,11441,1503600071601,-21,-2,-3,-7,-6,-3,0,8
11442,11442,1503600071609,8,-16,-7,-5,1,15,-3,-2
11443,11443,1503600071623,15,-7,-6,-1,1,-7,6,3
11444,11444,1503600071631,-3,11,6,-1,-9,-13,4,5
12561,12561,1503600082491,1,-1,-2,0,-3,-1,1,0
12562,12562,1503600082502,1,24,7,1,-3,-2,-1,0
12563,12563,1503600082514,-2,-2,-4,3,1,-1,0,0
12564,12564,1503600082520,-1,-18,-5,-6,-2,0,-2,1
12565,12565,1503600082527,-1,7,4,0,-1,-1,2,0
12566,12566,1503600082542,0,-2,0,6,1,-1,2,3
12567,12567,1503600082550,0,-14,0,0,-2,0,-3,-3
12568,12568,1503600082558,1,2,0,-3,-3,0,-1,-1
12569,12569,1503600082572,1,-3,-1,1,-2,-1,-3,-10
12570,12570,1503600082580,-1,-17,0,1,1,-1,-1,-11
12571,12571,1503600082587,-1,1,-2,-4,-5,-4,-3,1
12572,12572,1503600082603,-3,-6,-2,1,3,0,0,-1
12573,12573,1503600082610,-1,-1,-1,0,-2,-2,0,3
12574,12574,1503600082618,1,0,1,-2,1,-3,-1,3
12575,12575,1503600082634,1,10,-1,0,3,-3,-1,-1
12576,12576,1503600082642,2,8,4,2,3,2,-3,-15
12577,12577,1503600082647,0,-2,7,4,1,0,1,1
12578,12578,1503600082663,-1,-10,-6,-3,-3,-1,0,-1
12579,12579,1503600082670,2,-10,-2,-2,0,1,-4,-13
12580,12580,1503600082678,0,-9,-2,0,-1,2,-1,5
12581,12581,1503600082691,0,0,-1,0,-2,-5,-2,-5
12582,12582,1503600082692,-1,20,3,1,1,1,2,6
12583,12583,1503600082701,-1,12,-1,-2,-3,-1,1,-2
12584,12584,1503600082707,-3,-5,0,-1,0,3,0,1
12585,12585,1503600082722,0,2,0,-2,-1,-1,-2,4
12586,12586,1503600082730,-1,-2,0,7,-1,-1,-1,-2
12587,12587,1503600082739,-2,-7,-4,-3,-4,-7,-2,11
12588,12588,1503600082751,1,1,-1,-4,0,-2,0,1
12589,12589,1503600082760,-1,5,0,0,-2,-5,0,3
12590,12590,1503600082768,-4,-20,-8,-5,-2,1,1,-1
12591,12591,1503600082782,0,1,1,-1,1,4,1,-5
12592,12592,1503600082789,0,-7,-1,-1,1,0,0,-1
12593,12593,1503600082806,0,-3,1,-1,-3,0,0,-2
12594,12594,1503600082811,0,3,0,-1,-1,-3,-2,4
12595,12595,1503600082819,0,11,4,-1,2,1,-1,2
12596,12596,1503600082836,-1,2,0,-2,-2,0,-3,-1
12597,12597,1503600082843,-2,-6,-6,0,-1,2,-3,-2
12598,12598,1503600082850,-1,1,-5,-3,-1,0,-1,-1
12599,12599,1503600082858,1,-7,-3,-1,-3,-3,-3,1
12600,12600,1503600082872,-1,2,1,0,-2,0,1,1
12601,12601,1503600082880,1,-18,-3,0,0,0,-1,-5
12602,12602,1503600082887,-1,-18,-6,-2,1,-1,-1,0
12603,12603,1503600082904,-1,-2,2,-2,-2,-3,0,-4
12604,12604,1503600082910,-2,-6,-2,-2,-1,-3,-1,-4
12605,12605,1503600082918,1,21,1,-1,0,2,0,4
12606,12606,1503600082931,-2,12,-1,-10,-2,0,-1,-2
12607,12607,1503600082940,-2,-1,-2,-2,1,0,1,3
12608,12608,1503600082947,0,2,2,0,0,5,-1,-4
12609,12609,1503600082962,-5,-7,-2,-2,-2,-1,0,-2
12610,12610,1503600082978,1,28,8,2,3,2,1,0
12611,12611,1503600082992,3,26,1,2,3,1,-3,2
12612,12612,1503600083002,-6,-14,-6,-3,-3,-2,-3,8
12613,12613,1503600083007,2,6,3,9,0,-2,-2,0
12614,12614,1503600083022,-1,-6,-2,-3,0,0,-2,1
12615,12615,1503600083030,-5,-7,-2,-3,0,0,-1,-1
12616,12616,1503600083038,1,-2,0,2,1,-2,0,-3
12617,12617,1503600083051,-1,-2,-2,-1,-1,0,0,-1
12618,12618,1503600083052,0,-4,-1,-1,-3,-4,1,-2
12619,12619,1503600083060,-1,-6,0,0,0,-3,0,-5
12620,12620,1503600083069,0,-17,-3,-2,-2,0,-1,0
12621,12621,1503600083082,1,-7,-5,-1,-1,1,3,-1
12622,12622,1503600083090,-2,14,5,8,3,1,0,-1
12623,12623,1503600083098,1,-11,-8,-4,-3,1,1,-4
12624,12624,1503600083112,-2,-14,-6,-5,-1,-3,-4,-3
12625,12625,1503600083119,0,10,-1,1,0,-2,-2,-2
12626,12626,1503600083127,0,11,4,-1,0,1,-1,-3
12627,12627,1503600083142,0,-10,-1,-1,-3,-3,-1,2
12628,12628,1503600083150,0,3,1,-3,-2,-3,0,0
12629,12629,1503600083158,0,0,-1,-10,-2,-2,-1,0
12630,12630,1503600083171,-3,-3,-3,-2,-3,-2,3,3
12631,12631,1503600083180,1,1,2,0,1,-2,-2,-5
12632,12632,1503600083187,7,-4,-1,-1,-1,1,-1,0
12633,12633,1503600083205,1,1,-1,1,-3,-1,-3,-1
12634,12634,1503600083210,-8,-9,-1,1,-1,2,-4,-5
12635,12635,1503600083218,0,2,1,2,2,1,2,5
12636,12636,1503600083231,-2,-17,-7,-1,-1,-4,0,1
12637,12637,1503600083240,-2,6,4,-5,-1,-4,-2,0
12638,12638,1503600083257,-2,1,0,-2,1,-1,-6,1
12639,12639,1503600083262,-1,1,-3,0,0,3,-1,1
12640,12640,1503600083273,-6,6,0,-1,-2,-4,-1,-4
12641,12641,1503600083285,-6,4,0,0,-1,0,0,-2
12642,12642,1503600083291,4,21,1,0,0,3,3,4
12643,12643,1503600083301,0,9,4,2,-1,0,-1,-3
12644,12644,1503600083316,-1,-1,2,0,-2,-6,-3,-3
12645,12645,1503600083322,-12,-13,-4,6,-1,2,-3,-4
12646,12646,1503600083330,12,17,0,-3,-2,-2,2,4
12647,12647,1503600083345,10,1,0,-2,-2,-1,-1,0
12648,12648,1503600083352,-2,0,0,3,-1,-4,0,-3
12649,12649,1503600083360,5,-1,-1,-4,-10,-2,0,0
12650,12650,1503600083374,-8,-14,-3,-1,-3,13,0,3
12651,12651,1503600083382,7,3,-1,1,-2,-12,6,-2
12652,12652,1503600083389,-8,-9,2,10,2,-5,-1,-6
12653,12653,1503600083406,22,36,0,-3,-1,-5,-5,8
12654,12654,1503600083413,16,9,-5,-7,-1,-6,-2,-1
12655,12655,1503600083420,-19,-16,-4,4,2,2,-1,-3
12656,12656,1503600083434,-13,-14,-3,-7,-4,1,-4,-2
12657,12657,1503600083443,6,-3,0,0,0,9,1,-7
12658,12658,1503600083450,9,-5,-4,-3,-5,-3,4,8
12659,12659,1503600083464,-7,-10,-2,-3,4,4,-2,-4
12660,12660,1503600083472,-4,-1,-1,4,-5,-10,-1,8
12661,12661,1503600083480,-4,-9,-3,-1,5,-3,-1,-2
12662,12662,1503600083495,-21,-20,1,-4,0,2,0,-2
12663,12663,1503600083502,-28,-24,-7,-2,-2,4,-3,-6
12664,12664,1503600083510,-5,-3,1,0,4,3,-3,-8
12665,12665,1503600083524,15,-4,-6,-7,-10,-1,4,-1
12666,12666,1503600083531,-1,7,-1,0,-5,-1,-5,-7
12667,12667,1503600083540,0,-3,1,-3,-1,3,-4,-4
12668,12668,1503600083554,12,9,-2,3,0,1,1,-2
12669,12669,1503600083562,3,-4,0,3,5,11,0,1
12670,12670,1503600083569,4,-2,-3,-7,3,1,-5,10
12671,12671,1503600083585,8,14,7,2,1,3,6,6
12672,12672,1503600083592,7,25,13,2,4,0,-2,-8
12673,12673,1503600083607,-4,-12,2,0,4,0,-3,1
12674,12674,1503600083614,-2,-7,-7,0,1,-1,-1,3
12675,12675,1503600083622,3,5,7,-3,-3,-9,-8,3
12676,12676,1503600083629,-4,-5,0,1,-1,-2,-6,-10
12677,12677,1503600083645,-6,-3,-6,-5,-3,-4,3,2
12678,12678,1503600083651,3,0,-2,1,1,6,5,-3
12679,12679,1503600083659,-1,5,12,1,1,7,-3,-6
12680,12680,1503600083660,-7,15,2,-1,-6,-41,-10,3
12681,12681,1503600083674,-14,-14,-13,-5,3,-1,-1,-11
12682,12682,1503600083682,0,-6,-2,1,6,17,0,-4
12683,12683,1503600083689,-3,-16,-9,-4,0,-5,-5,-1
12684,12684,1503600083706,-4,5,1,0,2,19,0,-1
12685,12685,1503600083712,0,4,-1,-9,-2,17,-10,-1
12686,12686,1503600083720,4,-3,4,1,4,8,7,-4
12687,12687,1503600083734,2,14,-3,1,0,10,9,4
12688,12688,1503600083742,-5,-4,-7,-5,-6,-11,-1,8
12689,12689,1503600083749,-16,0,4,-1,-4,0,0,-15
12690,12690,1503600083764,-5,-2,0,6,-2,-15,-3,-10
12691,12691,1503600083773,0,-7,-3,-2,-2,-24,-2,11
12692,12692,1503600083780,0,0,7,1,-2,-6,0,-9
12693,12693,1503600083794,-9,7,5,4,5,-7,-4,-34
12694,12694,1503600083802,27,25,-10,-6,-6,-4,-3,-13
12695,12695,1503600083810,6,4,-1,-2,-3,-1,6,6
12696,12696,1503600083824,-21,22,2,5,3,5,-4,4
12697,12697,1503600083832,-6,-12,6,3,0,9,1,20
12698,12698,1503600083841,19,-11,5,0,-10,-32,2,5
12699,12699,1503600083854,-5,2,5,4,8,11,8,18
12700,12700,1503600083862,0,-3,-1,4,17,10,-14,2
12701,12701,1503600083870,14,0,-3,-5,-10,14,-7,10
12702,12702,1503600083884,-7,-12,-2,-1,0,24,-3,-6
12703,12703,1503600083892,15,5,0,3,5,0,-4,3
12704,12704,1503600083900,-22,-29,-3,-4,-9,-37,-4,11
12705,12705,1503600083914,-9,1,0,-1,0,-18,-1,-13
12706,12706,1503600083922,-15,-3,-2,0,2,19,7,-11
12707,12707,1503600083929,9,-7,-3,-1,1,0,8,-14
12708,12708,1503600083945,-8,2,-6,-9,-7,-9,-2,-3
12709,12709,1503600083952,9,-17,-9,2,5,3,-1,5
12710,12710,1503600083960,-28,1,-10,-4,-10,-3,9,9
12711,12711,1503600083976,-4,-11,2,2,4,24,8,-9
12712,12712,1503600083983,16,22,2,1,6,31,5,-8
12713,12713,1503600083990,-2,4,-2,-4,-4,-28,-6,-18
12714,12714,1503600084005,-21,-37,-17,-3,-5,-3,-3,-1
12715,12715,1503600084012,16,29,-3,-10,-2,11,-2,10
12716,12716,1503600084020,11,-8,-5,-2,4,-3,2,-1
12717,12717,1503600084034,-28,-23,-4,-6,-11,-8,-4,-5
12718,12718,1503600084042,34,49,8,-2,-1,-12,-7,8
12719,12719,1503600084050,11,1,7,13,13,18,13,4
12720,12720,1503600084064,-20,-4,-2,-5,-8,-31,-4,-7
12721,12721,1503600084075,-8,-5,-2,-3,-9,-17,-2,6
12722,12722,1503600084088,27,8,10,3,0,17,0,-7
12723,12723,1503600084094,-13,-13,0,0,-8,-10,-5,1
12724,12724,1503600084102,4,-2,4,3,0,1,1,-3
12725,12725,1503600084110,16,15,5,-11,-5,-14,-4,-5
12726,12726,1503600084124,-17,6,1,6,3,-2,-7,3
12727,12727,1503600084125,-5,-22,0,0,3,9,5,11
12728,12728,1503600084132,-28,-18,-10,-2,2,1,-2,13
12729,12729,1503600084142,15,-8,2,2,5,6,5,12
12730,12730,1503600084154,23,5,1,-2,-2,-16,1,4
12731,12731,1503600084162,-8,20,22,3,0,1,-4,-5
12732,12732,1503600084170,4,12,-2,-2,-7,-1,-5,-8
12733,12733,1503600084185,13,4,4,5,0,-12,-7,-4
12734,12734,1503600084192,-10,-3,-6,-1,-4,-18,-2,-17
12735,12735,1503600084208,5,34,9,-1,-1,1,-7,2
12736,12736,1503600084214,10,2,-2,2,2,6,-2,5
12737,12737,1503600084222,7,10,1,-2,0,5,3,-8
12738,12738,1503600084236,14,9,2,-2,0,6,-2,-5
12739,12739,1503600084246,-6,-33,-13,-1,2,15,1,3
12740,12740,1503600084253,-5,4,-7,-2,-4,-4,-2,11
12741,12741,1503600084267,-2,-11,-12,0,2,6,4,-5
12742,12742,1503600084276,7,6,11,4,5,8,1,-6
12743,12743,1503600084283,-21,17,-9,-6,-5,-8,-14,-8
12744,12744,1503600084296,-16,-8,13,2,-4,-12,3,3
12745,12745,1503600084305,27,-17,-2,0,1,-5,-2,5
12746,12746,1503600084312,17,-2,-6,-1,-3,-14,3,-4
12747,12747,1503600084313,-15,24,5,2,1,5,-4,3
12748,12748,1503600084327,18,27,-1,-2,-4,-4,1,22
14054,14054,1503600097159,1,-8,-5,0,-2,-1,0,3
14055,14055,1503600097167,-4,-5,-6,-3,-2,-2,-1,1
14056,14056,1503600097174,-4,13,-3,-2,1,-1,1,11
14057,14057,1503600097189,-3,-6,0,0,1,-1,0,0
14058,14058,1503600097197,-6,-23,-9,-2,-2,-4,-1,8
14059,14059,1503600097207,2,-6,-2,-2,1,1,1,-9
14060,14060,1503600097208,6,14,1,0,-3,-4,-1,0
14061,14061,1503600097219,-2,0,2,1,0,-1,-2,0
14062,14062,1503600097227,-4,-4,-4,-4,-1,-3,-4,2
14063,14063,1503600097234,-3,-8,-1,0,4,2,1,-5
14064,14064,1503600097250,1,-3,-2,1,0,-1,1,2
14065,14065,1503600097258,1,-9,-3,-2,-2,0,-2,-2
14066,14066,1503600097276,-2,-8,-4,-1,-1,-1,-2,2
14067,14067,1503600097286,2,2,2,0,-1,-1,-1,-3
14068,14068,1503600097288,-1,7,5,0,0,1,-1,-2
14069,14069,1503600097301,0,-9,-3,-2,-4,-3,0,2
14070,14070,1503600097311,3,19,3,-1,-1,-2,-1,-1
14071,14071,1503600097316,-7,-6,-2,-3,0,-2,0,-1
14072,14072,1503600097331,0,-12,-2,-1,0,-1,0,-1
14073,14073,1503600097342,-1,-1,1,2,-1,0,-2,2
14074,14074,1503600097349,13,14,2,1,-2,2,1,-6
14075,14075,1503600097361,1,-3,0,-1,0,3,-1,0
14076,14076,1503600097370,-7,-12,-9,-4,-1,-2,0,1
14077,14077,1503600097377,-1,0,-4,1,0,-1,-1,-2
14078,14078,1503600097391,-1,3,1,-1,-1,1,0,-11
14079,14079,1503600097399,-3,7,-1,-3,-1,-2,-1,-3
14080,14080,1503600097409,-1,-2,2,0,2,-1,0,2
14081,14081,1503600097422,5,-11,-4,0,2,1,-1,-2
14082,14082,1503600097430,-2,12,2,0,1,-2,0,0
14083,14083,1503600097436,-2,1,4,-1,-3,-2,0,1
14084,14084,1503600097451,-6,-10,3,0,-1,-1,-2,2
14085,14085,1503600097459,0,4,-1,-3,-3,-1,-3,-5
14086,14086,1503600097467,-7,3,-6,-2,-4,-2,-2,2
14087,14087,1503600097481,2,9,1,0,2,0,-1,-9
14088,14088,1503600097489,-2,-16,-7,-2,-2,-1,0,0
14089,14089,1503600097496,0,-1,0,-2,-1,-1,1,1
14090,14090,1503600097512,-2,-1,0,-1,-1,-1,0,-1
14091,14091,1503600097519,1,13,2,0,0,-1,-1,3
14092,14092,1503600097527,2,29,12,1,1,-1,-2,-2
14093,14093,1503600097542,-3,-27,-9,-2,-3,-1,1,-2
14094,14094,1503600097550,0,-13,-9,-2,-3,0,0,1
14095,14095,1503600097556,-2,0,-2,-2,0,0,0,3
14096,14096,1503600097571,-4,-8,-1,0,-1,-3,-4,0
14097,14097,1503600097579,0,-8,-6,-1,2,-1,0,1
14098,14098,1503600097587,0,-6,0,0,-1,1,0,-3
14099,14099,1503600097601,0,4,-1,-1,-2,-2,-1,-1
14100,14100,1503600097610,-1,5,-1,0,0,2,-1,-1
14101,14101,1503600097617,-1,-5,-2,-1,0,0,-1,-5
14102,14102,1503600097631,0,-3,-2,-2,-2,-3,-1,2
14103,14103,1503600097639,-1,9,15,5,1,0,0,-3
14104,14104,1503600097647,1,0,-2,-2,1,0,0,-6
14105,14105,1503600097661,1,1,2,1,-2,-2,-2,-1
14106,14106,1503600097669,8,-3,3,1,3,3,2,0
14107,14107,1503600097676,0,-9,-4,-4,-3,1,-2,0
14108,14108,1503600097691,-2,-4,-1,-2,-3,-3,-3,2
14109,14109,1503600097701,-3,-4,-4,0,-1,-3,-2,-3
14110,14110,1503600097709,4,-3,-3,-2,-2,0,0,-3
14111,14111,1503600097721,-2,-1,-3,-2,-2,-1,0,2
14112,14112,1503600097729,-6,4,3,1,0,-2,-1,-1
14113,14113,1503600097736,-3,5,-8,0,2,3,1,-1
14114,14114,1503600097751,0,25,9,1,-1,-1,-2,2
14115,14115,1503600097759,-1,-10,-6,-3,-2,0,-1,-7
14116,14116,1503600097767,-2,-16,-9,-3,0,0,0,1
14117,14117,1503600097782,1,-3,2,0,-1,-3,-2,-2
14118,14118,1503600097789,-3,0,-5,-1,-2,0,-1,0
14119,14119,1503600097796,-5,4,-3,-2,-4,-2,-3,-2
14120,14120,1503600097812,-4,-3,-3,-2,3,0,-1,-1
14121,14121,1503600097819,1,6,2,2,-2,-1,0,3
14122,14122,1503600097827,-2,-9,2,1,-2,-1,-1,1
14123,14123,1503600097842,3,9,1,2,2,1,1,-1
14124,14124,1503600097850,-2,-4,5,-2,1,0,-2,2
14125,14125,1503600097856,0,-6,-4,0,-1,-3,0,-16
14126,14126,1503600097873,0,-9,1,-1,-1,-2,-2,-2
14127,14127,1503600097879,2,8,-1,-2,-1,1,0,2
14128,14128,1503600097887,-4,-3,-3,-2,-3,-2,-2,-1
14129,14129,1503600097901,-2,-13,-2,-2,0,-1,0,4
14130,14130,1503600097910,2,0,0,0,-2,0,1,2
14131,14131,1503600097916,-1,8,3,0,-2,-2,-1,2
14132,14132,1503600097931,1,13,6,1,1,2,0,-1
14133,14133,1503600097939,6,-1,-1,-3,-5,-1,-1,-8
14134,14134,1503600097948,4,7,-5,-2,0,1,0,-1
14135,14135,1503600097962,-2,-4,0,-2,0,0,-2,1
14136,14136,1503600097969,-1,-17,-9,-3,-5,-3,0,1
14137,14137,1503600097978,-3,-4,-3,0,3,1,0,0
14138,14138,1503600097991,-3,-7,-3,-1,0,-2,-2,-2
14139,14139,1503600097999,-1,-5,-4,-1,-3,-4,-3,-1
14140,14140,1503600098007,1,5,-4,1,0,-1,-1,1
14141,14141,1503600098021,9,6,2,2,2,1,3,-1
14142,14142,1503600098029,-4,-7,-2,0,0,1,0,0
14143,14143,1503600098036,-6,-14,-2,-2,-1,-1,1,7
14144,14144,1503600098051,3,-1,0,-3,0,-2,0,-6
14145,14145,1503600098059,-1,6,5,0,1,-3,-2,1
14146,14146,1503600098067,-2,-3,-3,0,-3,1,1,1
14147,14147,1503600098081,-3,2,2,1,0,0,0,-1
14148,14148,1503600098089,-4,-8,-2,2,3,-2,-3,-2
14149,14149,1503600098096,0,6,0,-4,-1,0,0,-3
14150,14150,1503600098111,-1,-12,-3,1,2,0,-3,5
14151,14151,1503600098112,-1,13,5,0,1,1,1,5
14152,14152,1503600098120,-4,-14,-5,-2,0,-1,-4,2
14153,14153,1503600098127,-1,2,-1,-2,-3,-2,-2,-4
14154,14154,1503600098141,1,0,1,-2,0,-1,-1,3
14155,14155,1503600098156,-2,3,0,1,-1,-1,1,0
14156,14156,1503600098157,0,-10,-3,1,0,-1,-2,-2
14157,14157,1503600098173,0,-3,-3,-1,0,-1,0,-3
14158,14158,1503600098179,-3,6,3,1,-2,0,-1,-1
14159,14159,1503600098194,5,-1,-3,-2,0,3,0,-2
14160,14160,1503600098201,1,2,-4,0,-1,-1,2,-6
14161,14161,1503600098212,-5,6,1,-1,-3,-3,-2,-3
14162,14162,1503600098223,5,18,4,1,-2,-2,-3,0
14163,14163,1503600098232,-1,-8,1,0,0,-2,-2,-1
14164,14164,1503600098240,-2,3,-1,-2,-1,0,-3,0
14165,14165,1503600098254,-2,3,0,-1,-2,6,2,1
14166,14166,1503600098262,0,1,1,0,0,-1,0,0
14167,14167,1503600098269,-2,2,2,0,-1,-3,-1,-2
14168,14168,1503600098284,-1,1,-1,-2,-2,-1,0,2
14169,14169,1503600098291,2,-6,2,0,0,-2,1,-5
14170,14170,1503600098299,-3,4,0,-1,-1,0,0,-1
14171,14171,1503600098314,6,3,-1,1,-3,0,-1,-14
14172,14172,1503600098322,-7,-24,-4,-2,0,-1,2,-1
14173,14173,1503600098329,1,-6,-3,-2,0,-1,-2,2
14174,14174,1503600098349,-6,-5,-6,-3,-3,-4,-3,-11
14175,14175,1503600098352,-6,-5,-5,-2,-3,-2,-2,2
14176,14176,1503600098359,1,13,4,0,-1,-2,-1,1
14177,14177,1503600098374,-1,-2,-1,-1,0,-1,0,2
14178,14178,1503600098382,0,0,-4,0,-1,0,0,2
14179,14179,1503600098390,-4,10,9,1,-2,-4,2,1
14180,14180,1503600098403,1,-6,-2,-3,0,5,2,-8
14181,14181,1503600098414,-1,-10,-3,-1,1,-1,-1,3
14182,14182,1503600098424,1,0,0,-1,-1,-3,-3,1
14183,14183,1503600098434,2,2,-6,-2,-4,-1,-2,-1
14184,14184,1503600098441,-1,-9,3,1,2,0,0,1
14185,14185,1503600098450,-5,-5,-5,-2,1,1,2,2
14186,14186,1503600098463,-2,-9,-2,0,-2,-2,-2,2
14187,14187,1503600098471,-4,-3,2,2,1,-2,1,-3
14188,14188,1503600098480,-2,7,-5,1,-1,1,0,-1
14189,14189,1503600098494,1,1,-3,-1,-1,1,-2,-2
14190,14190,1503600098501,7,-3,1,0,0,-2,-4,-8
14191,14191,1503600098510,-1,-2,-3,-1,-3,-10,0,-9
14192,14192,1503600098523,1,1,-3,-2,-1,0,0,-1
14193,14193,1503600098531,1,16,11,1,1,0,-3,0
14194,14194,1503600098539,-4,-9,-3,-1,-2,-2,-1,2
14195,14195,1503600098555,-1,-3,-1,-1,1,-3,-1,1
14196,14196,1503600098561,3,1,2,-1,-1,-1,-3,5
14197,14197,1503600098570,2,-2,-1,-2,-2,1,-1,4
14198,14198,1503600098586,1,1,-3,-1,1,0,0,3
14199,14199,1503600098592,-6,-2,1,1,4,0,-3,-2
14200,14200,1503600098599,0,5,2,0,0,-1,0,0
14201,14201,1503600098615,2,5,-3,-1,-2,-1,0,6
14202,14202,1503600098622,2,1,-3,-2,-1,-3,-2,-5
14203,14203,1503600098630,-19,0,-2,-2,0,-2,-5,-15
14204,14204,1503600098643,-8,13,-1,-3,-3,2,-2,-1
14205,14205,1503600098653,4,-2,-2,0,-1,2,1,4
14206,14206,1503600098662,-8,-9,3,1,-2,-8,1,1
14207,14207,1503600098674,2,4,2,-1,0,3,2,-11
14208,14208,1503600098682,0,1,0,0,2,-4,0,2
14209,14209,1503600098691,3,-8,-5,-4,1,-1,-1,5
14210,14210,1503600098703,-1,-8,-2,-1,0,0,0,-1
14211,14211,1503600098718,3,1,-3,-3,-2,0,0,5
14212,14212,1503600098719,6,6,3,0,0,0,-1,-2
14213,14213,1503600098734,7,0,-4,-1,-4,-3,-2,6
14214,14214,1503600098750,3,12,-4,-1,-3,-1,-1,1
14215,14215,1503600098751,2,-10,0,1,0,-2,-1,-5
14216,14216,1503600098763,-24,-14,-5,-2,1,3,-2,-6
14217,14217,1503600098771,2,17,1,-2,1,4,1,0
14218,14218,1503600098780,4,7,2,1,0,0,1,4
14219,14219,1503600098794,-1,8,3,1,-1,-1,-1,-1
14220,14220,1503600098801,3,10,17,4,4,-2,1,0
14221,14221,1503600098809,-1,11,0,-1,-5,-15,-2,-2
14222,14222,1503600098810,2,-7,-3,1,-2,-19,-1,2
14223,14223,1503600098824,0,-12,-9,-3,1,0,2,0
14224,14224,1503600098831,-2,-2,1,-1,0,5,-3,-7
14225,14225,1503600098839,5,-5,-4,-2,-2,5,2,2
14226,14226,1503600098854,0,5,0,-2,-2,0,0,1
14227,14227,1503600098862,-3,17,6,1,-2,0,-3,2
14228,14228,1503600098870,4,12,1,-2,0,4,0,2
14229,14229,1503600098885,0,-8,-3,-1,0,-1,-1,4
14230,14230,1503600098892,-10,-14,-4,-2,-2,2,-1,0
14231,14231,1503600098899,5,-3,-5,-3,-6,-6,-2,-4
14232,14232,1503600098916,-1,-14,-6,-1,0,16,1,-4
14233,14233,1503600098922,2,-8,-5,-1,-2,-5,0,-5
14234,14234,1503600098929,2,2,8,5,1,4,2,-2
14235,14235,1503600098943,-1,5,2,0,-1,-1,-1,-2
14236,14236,1503600098952,-9,-11,-6,-2,-2,-6,-2,-2
14237,14237,1503600098959,-3,-1,0,-1,-3,5,2,-1
14238,14238,1503600098974,-4,4,1,-1,1,-2,-3,0
14239,14239,1503600098983,-1,-11,-5,-1,1,-2,-2,-1
14240,14240,1503600098991,2,0,-1,-1,-2,-6,2,2
14241,14241,1503600099003,-2,4,-1,-1,0,-12,-2,0
14242,14242,1503600099011,2,-3,-3,0,1,-1,-1,-6
14243,14243,1503600099020,-27,-17,-2,-3,1,18,3,1
14244,14244,1503600099034,-1,-1,2,1,0,-1,-2,-4
14245,14245,1503600099041,1,7,3,-1,0,-12,-3,3
14246,14246,1503600099053,-1,-2,-4,-3,-1,-2,-2,1
14247,14247,1503600099063,9,-1,1,-1,-2,-2,-2,0
14248,14248,1503600099071,6,0,1,-1,-2,-6,-3,-3
14249,14249,1503600099079,3,4,-1,0,0,-1,0,-1
14250,14250,1503600099094,-5,-14,-2,-1,1,-2,-2,-3
14251,14251,1503600099101,6,2,3,2,1,-1,-1,-8
14252,14252,1503600099117,3,-1,-1,0,1,1,-3,6
14253,14253,1503600099123,-1,6,-4,-1,-4,0,1,9
14254,14254,1503600099131,-1,-2,-3,-2,-7,-4,0,0
15387,15387,1503600110119,-1,0,2,-1,1,-3,-1,0
15388,15388,1503600110133,-2,-12,-3,-4,-1,-2,-2,-3
15389,15389,1503600110142,-1,7,-1,0,-1,-1,0,-2
15390,15390,1503600110149,1,-4,-3,1,0,-2,-3,-2
15391,15391,1503600110163,-2,17,-1,0,1,0,-2,-5
15392,15392,1503600110172,-3,-13,-2,0,5,1,0,1
15393,15393,1503600110173,0,-2,-3,-3,-4,-1,0,-1
15394,15394,1503600110179,2,-6,-2,-3,-3,-1,1,2
15395,15395,1503600110193,-2,14,5,2,3,2,-1,-1
15396,15396,1503600110201,5,-2,-2,-1,-5,-5,-2,-16
15397,15397,1503600110209,-3,-11,-1,-2,2,-1,1,-1
15398,15398,1503600110223,-3,-6,-2,0,2,-1,-3,2
15399,15399,1503600110230,2,-4,4,1,1,0,1,-1
15400,15400,1503600110239,-2,-4,0,1,1,1,0,4
15401,15401,1503600110253,-2,25,5,-1,-4,-2,0,12
15402,15402,1503600110261,-6,-37,-2,-1,-2,0,-3,1
15403,15403,1503600110268,1,-15,-5,-2,-4,-2,0,0
15404,15404,1503600110283,-2,-4,-1,-1,1,-1,-1,0
15405,15405,1503600110284,1,7,-2,-3,1,-1,-1,3
15406,15406,1503600110290,-1,-3,-3,0,3,1,-2,-6
15407,15407,1503600110306,-1,-1,-1,2,0,0,1,1
15408,15408,1503600110314,0,-2,-7,-1,-1,-3,0,-2
15409,15409,1503600110321,-1,-6,-7,-4,-1,-2,-1,1
15410,15410,1503600110335,-2,-10,-3,-1,-3,-2,-2,-2
15411,15411,1503600110344,-1,2,-1,-2,0,0,-1,-3
15412,15412,1503600110350,1,3,2,-3,-1,-1,0,1
15413,15413,1503600110366,-1,10,0,-2,-6,-5,-2,0
15414,15414,1503600110373,-4,-7,-3,-1,0,0,-3,-3
15415,15415,1503600110382,0,3,0,-1,-2,-1,0,-1
15416,15416,1503600110395,0,7,5,3,8,6,1,0
15417,15417,1503600110406,2,4,4,1,1,3,1,1
15418,15418,1503600110411,1,-3,-4,-1,-3,-3,-2,0
15419,15419,1503600110426,0,2,-2,0,-2,-1,-1,1
15420,15420,1503600110433,-1,-3,0,-2,0,0,-1,-2
15421,15421,1503600110441,-3,8,2,-1,-3,-1,-2,-1
15422,15422,1503600110455,-2,-2,3,0,-4,-2,-5,-5
15423,15423,1503600110464,-2,-2,-2,-1,1,1,0,-1
15424,15424,1503600110470,-2,-13,-5,-1,-2,-1,0,-1
15425,15425,1503600110486,-1,-4,-2,-1,-3,-1,-1,0
15426,15426,1503600110493,0,-8,-2,-1,2,1,1,0
15427,15427,1503600110501,-4,-6,-2,-1,2,-1,0,7
15428,15428,1503600110515,-2,3,-3,-2,-6,-3,-3,1
15429,15429,1503600110523,1,-3,0,-1,-1,-1,0,-2
15430,15430,1503600110530,0,16,2,0,1,-1,-1,-4
15431,15431,1503600110546,-5,-6,-4,-2,-2,1,1,2
15432,15432,1503600110553,2,17,4,1,0,0,-2,1
15433,15433,1503600110561,-1,5,0,1,0,1,0,-2
15434,15434,1503600110575,-5,-2,-3,-1,-1,0,0,-2
15435,15435,1503600110584,1,-2,1,0,-2,-2,-1,-4
15436,15436,1503600110590,-1,-11,-4,-2,1,-1,-2,-1
15437,15437,1503600110608,3,2,6,0,2,-1,-1,-5
15438,15438,1503600110613,1,2,-1,-1,0,-2,-2,-2
15439,15439,1503600110621,-2,4,-2,-6,-4,-2,-2,-2
15440,15440,1503600110635,0,-4,-1,1,-2,0,0,-1
15441,15441,1503600110644,-2,6,-1,3,-1,-2,-2,-5
15442,15442,1503600110651,0,-5,2,-1,-1,0,1,0
15443,15443,1503600110666,1,-3,-4,-1,-1,-4,0,0
15444,15444,1503600110674,1,2,-3,-2,-3,-1,0,0
15445,15445,1503600110681,0,4,0,-1,3,2,-3,-2
15446,15446,1503600110695,-2,8,0,0,-2,1,-1,-3
15447,15447,1503600110703,-2,-1,-3,-2,1,-1,0,-1
15448,15448,1503600110711,1,-3,2,0,1,-4,-1,2
15449,15449,1503600110726,3,1,2,1,0,12,0,0
15450,15450,1503600110733,2,-1,0,1,-2,-5,-1,-1
15451,15451,1503600110741,-3,-1,-1,-1,1,-1,-1,-1
15452,15452,1503600110742,3,-1,1,-1,2,-2,1,1
15453,15453,1503600110755,-1,-2,-2,-3,0,6,-1,-3
15454,15454,1503600110763,0,3,0,0,1,0,0,-2
15455,15455,1503600110771,-4,-3,-2,-3,-1,-2,-3,-1
15456,15456,1503600110786,0,7,2,-1,-4,-4,-2,1
15457,15457,1503600110793,-2,-27,-6,-4,-3,0,0,-2
15458,15458,1503600110801,-3,-10,-5,-2,-2,-2,-1,0
15459,15459,1503600110817,-1,1,2,1,1,2,2,0
15460,15460,1503600110823,-2,-7,1,1,1,-2,0,0
15461,15461,1503600110831,-1,-10,1,0,0,-1,0,-1
15462,15462,1503600110846,-3,-12,2,1,1,1,-2,-2
15463,15463,1503600110853,-1,0,1,2,-1,-2,-3,-6
15464,15464,1503600110861,-1,1,-4,-2,-2,-2,0,-1
15465,15465,1503600110876,3,3,2,0,-1,-1,0,2
15466,15466,1503600110883,0,-8,-4,-2,-5,-1,-1,-2
15467,15467,1503600110891,1,9,-6,-2,-2,-4,1,1
15468,15468,1503600110906,1,-6,-2,-1,-1,1,0,0
15469,15469,1503600110914,-3,-6,1,1,0,2,0,-1
15470,15470,1503600110921,-3,0,9,4,4,-1,0,-2
15471,15471,1503600110936,0,9,1,2,3,3,-1,1
15472,15472,1503600110944,1,4,-5,-3,0,0,-1,0
15473,15473,1503600110959,0,4,-1,-1,-4,-1,-2,1
15474,15474,1503600110966,0,1,-5,-2,1,2,-1,-1
15475,15475,1503600110982,-4,1,-2,0,-4,-3,-2,-3
15476,15476,1503600110997,-1,6,1,-1,-2,-1,-1,-3
15477,15477,1503600111003,-1,15,3,0,0,3,0,1
15478,15478,1503600111020,-1,6,-3,-2,-2,-2,-1,-2
15479,15479,1503600111026,0,-2,-3,-1,-2,-2,0,-1
15480,15480,1503600111034,0,-8,-3,-1,-3,1,2,0
15481,15481,1503600111043,0,0,-2,-4,-2,-4,-1,0
15482,15482,1503600111056,-4,-3,0,-2,-1,2,-2,-2
15483,15483,1503600111063,-2,-1,1,-1,0,4,-1,-1
15484,15484,1503600111081,0,6,0,0,-1,-2,1,0
15485,15485,1503600111086,1,0,0,-1,-1,5,2,0
15486,15486,1503600111094,-2,0,-1,-2,-1,9,-1,-1
15487,15487,1503600111101,-1,-1,-1,0,-5,-16,-2,-3
15488,15488,1503600111118,2,1,-1,-2,-2,-3,0,0
15489,15489,1503600111123,2,-1,-1,-3,-5,-11,-2,0
15490,15490,1503600111139,-7,3,-1,1,-2,-20,-2,1
15491,15491,1503600111147,-6,-2,-2,-2,6,9,-3,-2
15492,15492,1503600111154,6,4,0,-2,-5,-13,-2,3
15493,15493,1503600111161,-1,-3,-2,-1,-1,1,-1,1
15494,15494,1503600111181,-2,-1,0,0,1,3,-1,-2
15495,15495,1503600111183,3,-3,-2,-1,0,3,0,-3
15496,15496,1503600111199,-1,0,0,-2,-3,-3,0,0
15497,15497,1503600111200,2,0,2,1,1,6,-3,-15
15498,15498,1503600111206,2,-1,1,1,0,-1,0,0
15499,15499,1503600111214,-3,-6,-2,-2,1,2,-1,3
15500,15500,1503600111221,1,11,7,0,-3,-2,-2,2
15501,15501,1503600111236,1,3,6,2,0,3,2,3
15502,15502,1503600111246,-6,-5,0,1,0,-1,0,0
15503,15503,1503600111261,-1,-2,-4,-2,2,4,1,2
15504,15504,1503600111266,-1,-7,-2,-1,0,-1,-1,-2
15505,15505,1503600111281,0,-4,-1,0,2,-7,-1,0
15506,15506,1503600111288,-1,2,2,1,-1,4,2,1
15507,15507,1503600111289,1,-3,-5,-2,4,4,0,0
15508,15508,1503600111296,4,7,1,-1,-1,1,1,3
15509,15509,1503600111303,-10,-13,-6,-1,-1,-9,-4,-8
15510,15510,1503600111304,-1,1,-1,0,-2,7,-2,-2
15511,15511,1503600111321,0,2,-2,1,-2,-7,-3,1
15512,15512,1503600111326,1,-2,-3,0,3,16,2,0
15513,15513,1503600111334,-3,-4,-3,-2,3,9,1,-2
15514,15514,1503600111349,0,4,1,0,-1,-2,-1,-6
15515,15515,1503600111356,-2,-4,-2,-1,-5,-5,-2,3
15516,15516,1503600111364,0,0,-3,-2,0,3,1,2
15517,15517,1503600111387,0,-4,0,-1,-1,-1,-2,-2
15518,15518,1503600111388,-5,-3,-2,-1,-2,15,4,-4
15519,15519,1503600111394,-4,-1,-3,-1,1,9,0,1
15520,15520,1503600111409,-3,-11,-2,-1,5,-2,-3,-4
15521,15521,1503600111416,1,4,1,-3,-7,-16,-1,-2
15522,15522,1503600111423,1,1,1,-2,0,2,-5,-1
15523,15523,1503600111439,2,-2,0,-2,4,14,0,0
15524,15524,1503600111446,-1,6,0,0,3,12,2,-4
15525,15525,1503600111447,3,3,0,-2,-6,-15,-2,-4
15526,15526,1503600111454,-5,-1,-7,-1,-2,-1,0,-2
15527,15527,1503600111469,1,15,8,3,-1,12,3,-9
15528,15528,1503600111479,3,-11,-4,-1,-6,-21,1,-4
15529,15529,1503600111483,-4,-11,-10,-6,-11,-22,-4,2
15530,15530,1503600111499,-5,4,9,2,-2,2,-4,-9
15531,15531,1503600111506,4,13,-3,-2,-4,-14,0,4
15532,15532,1503600111515,5,4,3,0,-3,-6,-1,1
15533,15533,1503600111528,-2,2,-3,-3,-3,15,-4,-4
15534,15534,1503600111529,-1,-42,-5,0,-1,-18,-5,-4
15535,15535,1503600111536,-7,-22,-3,-2,2,8,-1,3
15536,15536,1503600111545,2,0,0,2,4,10,5,8
15537,15537,1503600111559,14,47,11,3,2,2,-2,-2
15538,15538,1503600111566,-10,-12,-5,-3,-3,-3,-4,-3
15539,15539,1503600111574,-2,9,7,3,5,4,-2,-12
15540,15540,1503600111595,-1,24,6,1,1,6,-3,7
15541,15541,1503600111597,-5,-2,-8,-2,3,6,0,6
15542,15542,1503600111603,-2,-8,1,-1,-2,-3,0,0
15543,15543,1503600111619,-9,-25,-9,-2,-1,-7,-3,-13
15544,15544,1503600111626,-5,4,-1,-2,-5,-6,-1,1
15545,15545,1503600111634,0,5,5,0,-1,-2,-1,3
15546,15546,1503600111649,-1,-9,-2,2,10,26,0,-6
15547,15547,1503600111658,-4,-14,-11,-5,-4,-9,-1,3
15548,15548,1503600111663,1,4,-1,-2,-3,-8,3,15
15549,15549,1503600111681,2,7,7,2,4,18,4,8
15550,15550,1503600111686,2,19,2,1,1,-6,0,0
15551,15551,1503600111702,2,3,-4,-1,-2,-12,1,-3
15552,15552,1503600111708,2,3,3,2,-1,-6,0,-3
15553,15553,1503600111716,1,3,-2,1,0,8,0,1
15554,15554,1503600111723,1,-3,-2,1,2,0,2,2
15555,15555,1503600111724,8,6,2,0,-1,-2,0,-9
15556,15556,1503600111739,3,-4,-3,-3,2,8,-6,-11
15557,15557,1503600111747,-3,11,2,0,2,0,1,-3
15558,15558,1503600111754,-1,-3,-1,0,-4,-11,-5,-5
15559,15559,1503600111768,-2,-6,-5,-3,-6,-7,0,-2
15560,15560,1503600111776,2,3,-5,-3,-7,-22,0,4
15561,15561,1503600111784,-4,-24,-9,-1,3,15,1,-12
15562,15562,1503600111799,-7,-8,-3,0,1,9,2,4
15563,15563,1503600111806,-1,15,4,-2,-4,-7,-1,6
15564,15564,1503600111815,-3,-3,-1,-4,-4,-1,-2,-4
15565,15565,1503600111828,-1,-1,0,-1,-2,-3,-1,-3
15566,15566,1503600111829,5,-10,-4,-1,-1,-1,-3,-6
15567,15567,1503600111836,-5,-14,3,1,1,7,1,5
15568,15568,1503600111843,1,29,13,0,-4,-8,-2,0
15569,15569,1503600111859,-3,-14,-7,-3,0,3,0,2
15570,15570,1503600111866,-2,-8,-5,-1,0,-5,-1,3
15571,15571,1503600111874,-6,3,2,1,0,-5,0,6
15572,15572,1503600111889,-1,15,2,1,1,3,2,1
15573,15573,1503600111896,3,-3,2,3,-7,-12,-2,-16
15574,15574,1503600111903,3,-9,-2,-1,-2,-5,-1,1
15575,15575,1503600111919,2,17,2,-2,5,11,-3,-1
15576,15576,1503600111926,-2,-12,-6,0,0,-3,0,3
15577,15577,1503600111934,-6,9,4,0,1,-1,-1,6
15578,15578,1503600111949,-3,-12,-6,-1,0,2,-3,1
15579,15579,1503600111957,-1,-8,-4,-2,-3,-5,1,-1
15580,15580,1503600111963,-2,8,5,0,-4,-14,1,17
15581,15581,1503600111982,-2,-7,-5,-2,1,2,2,7
15582,15582,1503600111986,8,-10,-7,-2,11,32,-1,-1
15583,15583,1503600111994,8,9,-2,-3,-7,-7,0,-7
15584,15584,1503600112008,9,4,6,1,-1,4,-3,0
15585,15585,1503600112016,-1,-7,-6,-2,1,8,0,-1
15586,15586,1503600112024,6,-4,-2,1,1,9,1,4
15587,15587,1503600112039,13,3,-2,-2,-11,-8,-2,-9
15588,15588,1503600112049,6,-11,5,2,-5,-18,-4,-1
15589,15589,1503600112054,-21,4,5,2,4,1,-3,-4
15590,15590,1503600112068,-13,-2,-1,-1,-5,-12,-1,17
15591,15591,1503600112076,-12,1,-3,-3,-6,-13,0,-1
15592,15592,1503600112084,-9,-7,-3,-2,-6,-14,-2,-3
15593,15593,1503600112099,7,-1,1,3,5,1,-5,-11
15594,15594,1503600112106,-6,-2,-2,-2,-3,-9,-2,-15
15595,15595,1503600112117,9,2,5,1,6,11,1,-25
15596,15596,1503600112129,1,13,-1,-3,-1,8,-2,-5
15597,15597,1503600112136,0,-1,-4,-1,-2,-1,-3,11
15598,15598,1503600112143,0,-4,1,2,-1,-2,-3,-18
15599,15599,1503600112159,-17,-17,-5,-3,-6,-4,1,10
15600,15600,1503600112166,-7,-12,-4,-1,-8,-12,-1,4
15601,15601,1503600112182,3,-2,-5,-3,-8,-20,-4,-1
15602,15602,1503600112189,5,-7,-5,-4,-2,0,0,-3
15603,15603,1503600112196,2,7,3,0,-5,-9,2,5
15604,15604,1503600112211,4,10,-2,-2,-4,-4,3,-1
15605,15605,1503600112219,-11,-13,-7,-2,3,13,2,13
15606,15606,1503600112226,-4,6,2,8,17,24,-3,-24
15607,15607,1503600112241,13,20,5,0,-1,6,3,10
15608,15608,1503600112254,-6,-14,-5,-3,0,-2,0,-1
15609,15609,1503600112266,-11,-15,-5,-2,-1,-1,-6,-8
15610,15610,1503600112271,-7,-2,3,0,4,9,1,-6
15611,15611,1503600112279,10,2,5,-2,-1,-16,0,4
15612,15612,1503600112286,2,-11,-1,1,-3,-1,-1,-9
15613,15613,1503600112301,8,-2,-3,0,5,11,5,-3
15614,15614,1503600112308,-4,4,-2,-4,-3,0,-3,0
15615,15615,1503600112318,15,-5,1,3,2,3,-7,-11
15616,15616,1503600112331,-8,-9,-3,-1,1,1,1,10
15617,15617,1503600112339,0,9,8,2,-1,6,3,-16
15618,15618,1503600112346,0,4,-5,-3,-5,-10,-2,4
16621,16621,1503600122073,-1,7,4,1,1,-1,-1,0
16622,16622,1503600122074,1,-4,-2,1,-1,-2,0,-5
16623,16623,1503600122081,0,-3,-2,-1,-4,-3,0,-3
16624,16624,1503600122096,6,-3,-2,-1,2,1,0,-14
16625,16625,1503600122103,-1,-5,4,1,-2,0,0,1
16626,16626,1503600122111,-7,0,-4,-1,0,-1,-1,3
16627,16627,1503600122126,-2,4,-2,-1,-1,-1,-2,-2
16628,16628,1503600122133,-3,7,1,0,1,-1,-1,2
16629,16629,1503600122143,0,-2,-4,-2,-7,-5,-1,4
16630,16630,1503600122156,-1,-1,-2,-1,-1,-1,-1,-1
16631,16631,1503600122164,4,2,-1,-2,-1,-1,-1,-12
16632,16632,1503600122165,-1,1,2,0,5,1,-4,2
16633,16633,1503600122171,-2,1,-2,-1,2,1,-1,0
16634,16634,1503600122186,-3,3,-2,0,0,-2,-1,-2
16635,16635,1503600122193,-3,-7,1,-1,-5,1,0,2
16636,16636,1503600122202,-1,12,2,-2,-1,0,0,-4
16637,16637,1503600122215,0,-18,0,-1,-2,-3,-2,-3
16638,16638,1503600122223,-1,-4,0,1,1,0,0,3
16639,16639,1503600122231,-4,-9,-2,-1,0,-1,0,-1
16640,16640,1503600122246,-2,-11,0,-1,-5,-4,-2,-6
16641,16641,1503600122253,1,-3,-3,0,-1,1,-2,1
16642,16642,1503600122261,2,-6,-2,-3,-2,-2,-1,-2
16643,16643,1503600122276,-2,0,-1,-2,1,-2,0,1
16644,16644,1503600122283,5,10,-3,-1,2,0,-1,-1
16645,16645,1503600122290,1,6,0,-1,-3,-2,-1,1
16646,16646,1503600122306,-1,-11,-7,-3,0,1,2,4
16647,16647,1503600122313,0,5,-3,0,0,0,-1,-2
16648,16648,1503600122321,-2,1,0,-1,1,0,-1,0
16649,16649,1503600122336,2,1,3,1,-1,-1,1,4
16650,16650,1503600122344,-1,7,1,0,-3,-3,1,1
16651,16651,1503600122350,0,-10,-4,-2,2,0,-1,-1
16652,16652,1503600122368,2,-20,-1,-1,-3,1,0,-2
16653,16653,1503600122373,-3,-10,-2,-2,3,1,-2,0
16654,16654,1503600122381,-5,-10,-3,-2,3,-1,-3,-3
16655,16655,1503600122395,-2,-3,3,1,0,-1,0,-2
16656,16656,1503600122404,-1,3,-1,1,-1,1,-1,2
