,SampleNumber,TimeStamp,EMG1,EMG2,EMG3,EMG4,EMG5,EMG6,EMG7,EMG8
874,874,1503600479997,69,61,24,4,-3,-2,-15,26
875,875,1503600480013,6,-18,5,-1,-3,-9,4,5
876,876,1503600480020,-10,2,-1,-1,8,23,13,-3
877,877,1503600480028,-2,8,5,-9,-8,-22,-5,-19
878,878,1503600480035,-13,-16,-4,-3,-9,-14,-6,-13
879,879,1503600480051,-25,-4,-10,-1,-7,-17,-7,-6
880,880,1503600480057,44,-7,-17,-6,-4,-4,5,10
881,881,1503600480065,-5,-39,-19,-4,1,6,5,-6
882,882,1503600480079,-8,21,3,-1,1,-2,-6,4
883,883,1503600480080,9,-4,19,8,2,25,9,2
884,884,1503600480089,-32,3,-4,-1,0,17,-1,-26
885,885,1503600480095,24,19,-1,-3,-2,-20,9,30
886,886,1503600480110,-1,7,-10,1,4,-7,-9,6
887,887,1503600480120,1,9,-2,2,11,27,3,-1
888,888,1503600480125,8,4,7,10,9,25,-3,-16
889,889,1503600480142,-23,27,9,0,-4,-15,-10,-2
890,890,1503600480148,39,16,11,1,0,1,3,9
891,891,1503600480155,-33,34,33,4,2,0,3,-13
892,892,1503600480170,3,22,15,0,3,5,11,7
893,893,1503600480178,8,-50,-29,-10,-6,-5,-2,6
894,894,1503600480192,-14,-7,1,-12,-9,-14,-13,12
895,895,1503600480199,-2,-22,-1,-3,-1,9,2,-9
896,896,1503600480209,-23,-84,-49,-3,-2,-8,6,-9
897,897,1503600480215,19,-28,-16,-2,-6,-8,-2,-8
898,898,1503600480230,19,42,-1,-2,-4,-19,12,-3
899,899,1503600480237,-27,18,20,7,-2,-17,5,-7
900,900,1503600480246,6,69,28,5,2,4,-2,-3
901,901,1503600480259,4,2,17,5,4,-3,-9,-36
902,902,1503600480267,24,2,-12,-1,0,1,4,10
903,903,1503600480268,-6,-9,9,3,8,33,8,0
904,904,1503600480276,8,-21,-8,1,5,21,-5,-3
905,905,1503600480296,10,-17,-7,2,-1,0,16,-13
906,906,1503600480297,3,-6,-15,-8,-5,0,-6,9
907,907,1503600480313,-23,25,21,7,-4,-34,-4,-26
908,908,1503600480319,-20,-28,-25,-9,-7,-8,6,14
909,909,1503600480327,-28,-39,-17,-1,-2,-12,-7,-21
910,910,1503600480343,10,17,7,-1,-1,13,-11,-18
911,911,1503600480351,28,-48,-18,-5,-4,-1,-7,14
912,912,1503600480356,1,2,0,5,5,8,-2,-6
913,913,1503600480372,-8,-21,0,-2,-2,-5,0,-4
914,914,1503600480380,37,12,-7,0,-2,-8,-6,-24
915,915,1503600480388,33,-38,-12,1,5,14,9,-6
916,916,1503600480403,36,13,-4,-1,1,-21,19,20
917,917,1503600480411,17,77,11,1,2,-2,1,5
918,918,1503600480417,15,10,-1,0,-1,-10,-16,-1
919,919,1503600480433,-11,-28,-17,-6,-13,-5,4,18
920,920,1503600480440,49,60,17,1,-1,9,13,22
921,921,1503600480448,11,20,15,4,4,-4,-10,-11
922,922,1503600480469,-50,-6,-10,-11,-16,-35,-1,6
923,923,1503600480470,10,5,3,-4,1,4,-2,4
924,924,1503600480477,-19,-49,-4,-2,6,12,-8,-13
925,925,1503600480492,-6,55,47,13,1,-16,-2,12
926,926,1503600480499,-39,-16,-1,1,-1,4,-6,-2
927,927,1503600480508,-18,-19,-2,-3,-7,-37,12,12
928,928,1503600480522,-5,-30,-7,0,-1,2,-5,0
929,929,1503600480530,2,-34,-10,-10,-6,2,-2,3
930,930,1503600480537,-23,3,7,2,-2,-20,-7,16
931,931,1503600480553,-18,-45,-22,-1,4,15,2,-7
932,932,1503600480560,-7,35,11,0,-2,9,-2,-7
933,933,1503600480567,8,13,2,-2,-6,-12,0,0
934,934,1503600480568,24,6,1,4,4,4,-3,4
935,935,1503600480583,13,22,7,2,-7,-36,-3,-16
936,936,1503600480590,4,1,-13,-4,-6,-43,-28,4
937,937,1503600480597,8,16,-5,0,9,15,13,-7
938,938,1503600480613,14,-8,10,4,3,18,6,0
939,939,1503600480620,-18,-23,-5,2,-7,-10,-19,7
940,940,1503600480627,18,5,-12,-4,1,4,18,19
941,941,1503600480642,7,-24,-4,-1,8,13,1,-6
942,942,1503600480650,-2,85,51,8,3,10,-6,-27
943,943,1503600480657,9,12,-8,-2,1,-2,0,0
944,944,1503600480672,-28,-50,-22,-10,-6,6,1,-1
945,945,1503600480683,-2,-12,-15,-1,1,9,8,4
946,946,1503600480688,-28,-52,-22,-5,-3,7,-6,-17
947,947,1503600480702,5,15,-7,-8,-11,-2,2,6
948,948,1503600480711,32,43,16,9,8,28,4,-3
949,949,1503600480717,-42,-18,0,-2,-1,5,13,-11
950,950,1503600480732,3,-8,-8,-3,-8,-24,3,-7
951,951,1503600480739,-32,-35,2,1,-5,-12,-3,14
952,952,1503600480748,-11,-41,-32,-9,-4,-5,-5,13
953,953,1503600480762,15,83,27,5,4,8,-2,-7
954,954,1503600480770,4,-9,-16,-6,-3,-8,-8,-7
955,955,1503600480779,17,-28,-10,-3,2,23,1,3
956,956,1503600480792,1,18,15,4,4,4,1,10
957,957,1503600480800,16,-13,0,-1,8,28,9,7
958,958,1503600480807,-35,-30,-15,-5,-2,12,2,20
959,959,1503600480823,-21,19,9,1,6,18,1,0
960,960,1503600480829,16,-26,-16,-2,-6,-17,14,15
961,961,1503600480830,-18,28,25,2,3,-1,-4,-8
962,962,1503600480846,4,-6,4,3,2,10,4,3
963,963,1503600480853,27,24,18,5,0,-2,-1,6
964,964,1503600480867,-4,-51,-28,-8,-7,-4,-8,-12
965,965,1503600480868,25,29,6,2,2,0,-1,2
966,966,1503600480883,-3,-19,-15,-4,-3,-9,-2,9
967,967,1503600480890,0,-13,-12,-4,-6,-1,11,-5
968,968,1503600480905,-21,-28,0,-2,-4,-11,-1,-9
969,969,1503600480913,-12,-3,5,2,4,13,8,8
970,970,1503600480921,2,6,3,4,1,-6,0,-6
971,971,1503600480927,-5,-23,-19,-4,-4,-5,-8,-2
972,972,1503600480943,-20,11,27,2,1,1,-7,-7
973,973,1503600480950,-15,-43,-6,-3,8,9,-4,7
974,974,1503600480965,-2,-6,-5,-4,-8,-20,2,7
975,975,1503600480972,-2,-13,-6,1,-3,-6,4,-19
976,976,1503600480982,27,43,20,7,-2,-19,-10,-4
977,977,1503600480988,-13,42,3,1,0,2,2,3
978,978,1503600481003,14,-2,-13,-4,-4,-28,-6,12
979,979,1503600481010,4,15,28,5,6,11,11,0
980,980,1503600481025,8,22,-2,2,0,-21,-1,-6
981,981,1503600481032,19,18,2,-1,0,0,-9,-6
982,982,1503600481040,27,-11,-6,1,1,27,4,-3
983,983,1503600481048,14,-14,-10,-2,-4,-6,-8,1
984,984,1503600481063,29,-23,-12,-13,-9,-13,-4,-5
985,985,1503600481070,-5,29,3,-4,-8,-8,9,30
986,986,1503600481086,-10,-1,8,-1,1,6,-4,0
987,987,1503600481092,-1,-8,-7,1,0,-2,-7,-3
988,988,1503600481100,2,8,-7,3,-4,-7,-2,0
989,989,1503600481108,20,42,15,3,-1,-5,-3,-16
990,990,1503600481123,4,-9,4,2,1,6,-7,-16
991,991,1503600481124,-7,11,18,6,6,1,2,-6
992,992,1503600481130,-21,-28,-17,-6,-4,-5,-14,-2
993,993,1503600481148,-29,17,-1,-2,-1,1,7,6
994,994,1503600481154,-12,-1,12,2,7,37,13,-12
995,995,1503600481160,25,7,-20,-3,6,25,4,8
996,996,1503600481167,9,9,-7,-6,-2,-1,-6,-2
997,997,1503600481185,-23,-30,-15,-7,-8,-5,-11,-5
998,998,1503600481191,-24,-74,-23,-8,-3,-2,-1,-3
999,999,1503600481206,-11,-16,12,9,2,-11,5,-18
1000,1000,1503600481212,-14,-9,-2,-3,-3,-3,8,2
1001,1001,1503600481220,-23,-6,1,-2,2,19,-1,-2
1002,1002,1503600481227,10,-6,3,3,7,-2,-1,-6
1003,1003,1503600481243,-15,7,-5,-3,3,13,-1,15
1004,1004,1503600481250,25,-25,-19,-3,0,-3,2,-7
1005,1005,1503600481265,9,15,7,3,-7,-11,0,2
1006,1006,1503600481272,5,41,2,1,4,0,-10,4
1007,1007,1503600481283,23,56,3,-5,-2,-10,-2,-3
1008,1008,1503600481295,17,14,6,-3,-2,2,-1,4
1009,1009,1503600481303,-36,-23,15,6,5,-5,0,0
1010,1010,1503600481310,-27,-24,-5,-1,-2,-16,2,9
1011,1011,1503600481325,7,14,3,1,2,20,8,-1
1012,1012,1503600481332,-18,0,3,6,6,11,-3,0
1013,1013,1503600481340,2,-5,3,0,8,-5,-3,1
1014,1014,1503600481355,16,16,4,2,-10,-4,4,3
1015,1015,1503600481363,-38,20,18,3,-1,-5,0,2
1016,1016,1503600481370,-8,19,2,-2,-2,5,10,-4
1017,1017,1503600481389,62,22,-7,-5,-4,3,-20,0
1018,1018,1503600481393,-18,-12,-2,-1,-7,-10,-9,-8
1019,1019,1503600481400,-5,-16,-6,-5,-4,0,1,5
1020,1020,1503600481417,2,-6,-9,-5,-8,-4,-5,0
1021,1021,1503600481426,6,-29,-7,2,-2,-9,-1,2
1022,1022,1503600481430,22,18,-2,-5,3,4,-2,1
1023,1023,1503600481445,-12,-56,-24,-4,-2,-4,2,-9
1024,1024,1503600481452,14,7,-12,-3,-1,-10,-6,-9
1025,1025,1503600481461,-6,3,4,0,-2,-5,5,-2
1026,1026,1503600481475,-17,-9,4,-2,-1,-1,-1,0
1027,1027,1503600481484,-14,-14,-11,-3,-2,-8,-1,-7
1028,1028,1503600481492,8,12,1,-1,-8,-6,-8,-10
2041,2041,1503600491286,5,14,3,0,2,2,6,2
2042,2042,1503600491300,-8,-12,5,0,-2,-13,0,11
2043,2043,1503600491306,-53,-11,-1,2,5,4,1,-12
2044,2044,1503600491314,-5,2,-4,-1,0,7,0,-4
2045,2045,1503600491329,13,-7,-16,-6,-4,-2,1,5
2046,2046,1503600491337,-19,-2,14,0,-1,-2,-5,-1
2047,2047,1503600491345,-1,-5,-2,1,5,24,4,3
2048,2048,1503600491360,-34,6,13,3,-1,1,-3,-12
2049,2049,1503600491368,-4,-5,-5,-4,-2,-5,11,-1
2050,2050,1503600491375,5,-1,-3,-1,-2,13,9,-1
2051,2051,1503600491391,-26,-1,-6,-4,-5,-6,-2,-6
2052,2052,1503600491397,17,2,-4,0,0,-20,0,4
2053,2053,1503600491413,-21,19,-11,-1,-1,-25,14,-7
2054,2054,1503600491420,-74,-6,12,2,-2,6,4,2
2055,2055,1503600491421,40,-2,3,0,0,-5,-3,1
2056,2056,1503600491428,17,4,4,3,3,1,-4,16
2057,2057,1503600491434,91,10,-6,-3,-2,-2,6,21
2058,2058,1503600491450,-15,-2,0,-6,-3,-1,-6,-11
2059,2059,1503600491457,-19,-2,0,0,-5,8,2,-19
2060,2060,1503600491472,5,-4,2,0,-1,7,-8,-17
2061,2061,1503600491480,6,-3,-3,-1,0,-2,17,22
2062,2062,1503600491490,-12,6,6,-2,-3,-15,0,-7
2063,2063,1503600491495,-8,3,1,2,7,17,0,10
2064,2064,1503600491510,-15,-16,-1,-3,-24,3,-8,-1
2065,2065,1503600491517,-67,-16,-8,-3,3,-5,-5,-19
2066,2066,1503600491533,0,-13,-3,0,9,14,5,-1
2067,2067,1503600491540,9,-11,-4,-3,0,8,-8,-13
2068,2068,1503600491549,33,48,14,4,2,-3,-6,7
2069,2069,1503600491563,-9,9,17,6,4,-5,0,11
2070,2070,1503600491570,38,-28,-14,-10,-4,2,0,7
2071,2071,1503600491579,30,3,-12,0,-4,-1,-7,-9
2072,2072,1503600491592,-15,-24,-6,2,8,-7,-3,-1
2073,2073,1503600491599,-38,-15,-7,-1,0,-4,5,2
2074,2074,1503600491607,1,22,21,8,6,-5,-4,2
2075,2075,1503600491622,-33,-11,-19,-9,-11,-13,-10,-16
2076,2076,1503600491630,-40,34,6,0,1,6,-10,-30
2077,2077,1503600491637,14,6,22,6,5,2,-1,2
2078,2078,1503600491655,26,-12,-9,-4,2,30,-1,0
2079,2079,1503600491659,-19,-34,-25,-11,-11,-7,6,2
2080,2080,1503600491667,42,25,6,2,4,-3,-3,-4
2081,2081,1503600491682,31,-1,-7,-3,11,9,4,-1
2082,2082,1503600491691,-5,-27,-9,-9,-6,-8,-1,6
2083,2083,1503600491697,-26,21,6,0,-5,-11,-1,8
2084,2084,1503600491712,-55,-30,-19,-3,-4,-4,-3,5
2085,2085,1503600491722,35,44,21,3,1,8,-10,-9
2086,2086,1503600491734,17,22,8,2,-1,-5,6,20
2087,2087,1503600491742,-4,-25,-7,0,-4,9,-14,-2
2088,2088,1503600491750,-37,-42,-6,0,-5,-12,0,-7
2089,2089,1503600491757,63,13,9,1,-2,-11,1,10
2090,2090,1503600491772,59,0,-1,5,6,5,9,13
2091,2091,1503600491790,-77,6,0,4,1,6,2,-6
2092,2092,1503600491795,39,16,17,3,0,-2,3,8
2093,2093,1503600491802,45,24,-1,-1,-1,-19,1,-11
2094,2094,1503600491810,-25,10,-4,1,11,5,-13,-10
2095,2095,1503600491817,-7,-3,9,3,-2,5,2,6
2096,2096,1503600491832,-4,1,-4,-3,-6,-4,-2,-1
2097,2097,1503600491841,29,-29,-17,-5,1,10,-3,2
2098,2098,1503600491847,-11,-1,9,5,9,5,4,10
2099,2099,1503600491863,-2,0,5,0,-2,-4,2,2
2100,2100,1503600491870,-39,-1,-2,-2,-1,9,-1,6
2101,2101,1503600491877,-20,-22,12,1,-1,-1,-5,-11
2102,2102,1503600491893,5,-13,-6,-1,-4,-6,-2,-1
2103,2103,1503600491900,3,22,-7,1,3,7,0,10
2104,2104,1503600491907,23,1,-1,1,4,8,9,1
2105,2105,1503600491923,-33,-9,-11,-4,-4,-6,2,1
2106,2106,1503600491931,3,20,14,4,1,-2,-9,-2
2107,2107,1503600491932,-4,-23,-7,-2,0,3,7,5
2108,2108,1503600491938,12,2,-3,-1,1,-12,0,5
2109,2109,1503600491952,5,6,-3,-5,-11,-9,-2,0
2110,2110,1503600491960,25,6,-8,-5,-6,-4,-7,-27
2111,2111,1503600491967,-77,-18,-7,-4,-4,-12,-9,-18
2112,2112,1503600491982,-19,-23,-17,-3,-5,-2,-2,-5
2113,2113,1503600491993,-1,-3,-5,-3,-4,4,8,4
2114,2114,1503600491998,-55,-12,2,-1,9,14,6,-5
2115,2115,1503600492012,7,14,5,-4,-5,4,-5,-10
2116,2116,1503600492019,75,30,30,5,-5,7,0,11
2117,2117,1503600492027,35,40,18,5,1,-7,-9,-4
2118,2118,1503600492042,-25,9,-7,-4,7,-3,-3,2
2119,2119,1503600492050,2,-20,-4,3,1,1,3,3
2120,2120,1503600492058,-42,-30,-7,2,-1,-2,1,-1
2121,2121,1503600492072,0,-12,-10,-2,0,-7,-1,-8
2122,2122,1503600492080,5,12,7,-2,-2,8,-1,-4
2123,2123,1503600492087,20,27,8,0,0,8,-6,-2
2124,2124,1503600492102,-18,-13,-13,-8,-14,-2,-4,-6
2125,2125,1503600492110,23,-11,-4,3,4,6,12,3
2126,2126,1503600492117,16,6,13,-1,-1,-2,-3,3
2127,2127,1503600492134,16,-12,-11,-5,-4,-8,-9,-12
2128,2128,1503600492139,22,12,7,0,1,1,2,-2
2129,2129,1503600492148,16,4,5,0,-5,-21,-3,8
2130,2130,1503600492162,5,8,-8,2,1,0,-10,14
2131,2131,1503600492170,-16,-2,-9,-3,-2,-7,-7,3
2132,2132,1503600492177,7,-5,1,5,5,0,12,-6
2133,2133,1503600492193,-32,-6,-4,0,0,0,-3,-7
2134,2134,1503600492200,19,7,8,0,3,6,0,-17
2135,2135,1503600492207,12,7,6,-1,-2,2,6,5
2136,2136,1503600492222,-25,0,-3,2,-1,-5,2,5
2137,2137,1503600492230,-8,-28,-18,-2,-6,-21,-1,1
2138,2138,1503600492237,-13,-2,-1,1,-2,-9,-7,5
2139,2139,1503600492255,-37,-36,-14,-3,-2,2,3,7
2140,2140,1503600492260,-16,-34,-12,-6,-1,-3,0,-16
2141,2141,1503600492268,30,53,26,0,-1,7,-5,-7
2142,2142,1503600492282,3,29,4,-6,-7,-15,-3,1
2143,2143,1503600492292,-17,-19,-2,2,2,12,0,-6
2144,2144,1503600492297,21,4,-2,0,-2,-6,4,12
2145,2145,1503600492312,-6,-1,-9,-5,-1,-2,-8,2
2146,2146,1503600492321,19,-9,10,2,1,-2,1,5
2147,2147,1503600492327,-25,18,-1,1,2,4,2,1
2148,2148,1503600492328,-9,14,3,3,5,8,3,-3
2149,2149,1503600492342,-20,32,11,-2,-2,1,-7,1
2150,2150,1503600492357,-61,4,-1,-6,-3,6,-3,-23
2151,2151,1503600492361,40,22,-1,3,4,-7,-1,3
2152,2152,1503600492362,-40,-30,-12,-1,-6,-14,2,6
2153,2153,1503600492372,4,-18,-2,-1,-3,-7,0,3
2154,2154,1503600492379,-1,21,-2,-1,0,4,4,-3
2155,2155,1503600492387,3,-7,2,3,1,-3,4,4
2156,2156,1503600492402,-2,26,13,-1,0,1,-4,-4
2157,2157,1503600492410,14,-13,3,-2,-5,-20,-6,-5
2158,2158,1503600492417,-8,-32,-20,-4,4,34,4,-8
2159,2159,1503600492433,29,-10,-4,2,10,34,10,1
2160,2160,1503600492439,-4,-6,10,5,2,-3,1,10
2161,2161,1503600492447,-16,16,19,10,7,5,-3,-8
2162,2162,1503600492462,43,-7,-5,1,-1,3,3,-2
2163,2163,1503600492470,-32,-31,-9,-1,-4,-6,-3,3
2164,2164,1503600492484,-79,-18,-3,-1,1,-8,-2,7
2165,2165,1503600492495,8,-28,-23,-10,-11,-25,-5,-7
2166,2166,1503600492499,38,12,9,-2,5,19,0,11
2167,2167,1503600492500,-11,5,-1,0,2,18,1,5
2168,2168,1503600492514,-15,-10,3,0,-1,-1,1,14
2169,2169,1503600492522,-8,7,-8,-2,-4,-5,2,0
2170,2170,1503600492531,38,56,6,-1,-1,3,0,1
2171,2171,1503600492544,67,42,-1,-5,-2,-1,4,12
2172,2172,1503600492552,1,-23,-11,-4,-3,-6,-4,4
2173,2173,1503600492562,16,16,21,7,4,-3,-3,-5
2174,2174,1503600492574,-19,29,-5,-3,-2,-1,2,-4
2175,2175,1503600492582,-54,-22,-7,-2,-4,-11,-10,-14
2176,2176,1503600492590,62,15,13,-1,-2,-10,7,12
2177,2177,1503600492605,13,28,14,4,0,-7,-5,-3
2178,2178,1503600492612,17,5,-3,-1,0,2,2,4
2179,2179,1503600492620,30,-7,-10,-6,-3,3,-7,-22
2180,2180,1503600492634,15,4,11,2,2,4,1,8
2181,2181,1503600492642,6,-54,-30,0,3,3,4,7
2182,2182,1503600492650,-24,-7,10,4,2,1,-3,-28
2183,2183,1503600492665,31,0,-7,0,0,-4,4,11
2184,2184,1503600492672,9,32,0,-2,-4,-4,-1,6
2185,2185,1503600492679,7,9,-7,-3,-5,-24,0,-8
2186,2186,1503600492695,7,-6,-11,-6,-3,2,-8,-2
2187,2187,1503600492702,33,-4,-1,1,-1,-9,3,5
2188,2188,1503600492703,-46,6,7,-5,7,29,1,-1
2189,2189,1503600492710,-37,6,-8,-4,-3,-2,-10,-19
2190,2190,1503600492724,8,-10,-3,-4,-2,0,-5,-2
2191,2191,1503600492734,-4,-26,5,1,1,5,4,-7
2192,2192,1503600492739,14,8,4,-1,-5,-10,-3,2
2193,2193,1503600492754,0,-12,-10,0,-2,-3,2,5
2194,2194,1503600492763,-3,-9,14,3,3,6,-4,0
2195,2195,1503600492770,3,8,2,-1,2,5,0,22
2196,2196,1503600492784,17,-7,-12,2,-5,-6,0,-1
2197,2197,1503600492792,-17,-3,8,-1,1,11,-1,-4
2198,2198,1503600492800,-5,-12,-6,-2,-3,-12,1,-1
2199,2199,1503600492814,-26,-8,-11,-4,-3,-3,-2,-10
2200,2200,1503600492822,12,15,-6,-2,0,-1,1,-5
2201,2201,1503600492831,10,-6,-5,-3,-1,-4,-20,-1
2202,2202,1503600492844,5,-16,-9,-5,-8,-44,-3,-5
2203,2203,1503600492853,-32,-30,-9,-3,-5,16,4,-14
2204,2204,1503600492859,-12,13,3,0,-1,14,-3,-9
2205,2205,1503600492874,31,8,2,3,8,-8,1,2
2206,2206,1503600492882,-9,-8,-2,-4,2,11,0,1
2207,2207,1503600492890,-10,6,0,1,0,0,2,1
2208,2208,1503600492905,-22,-22,-3,1,-2,-5,0,-6
2209,2209,1503600492912,17,22,7,0,-3,-5,1,4
2210,2210,1503600492919,-4,-22,0,0,0,-4,-1,10
2211,2211,1503600492936,14,3,4,5,7,7,2,3
2212,2212,1503600492942,-6,-4,-6,-2,2,-8,0,-1
2213,2213,1503600492950,-6,12,0,1,-6,-26,2,7
2214,2214,1503600492965,15,23,17,3,5,10,1,8
2215,2215,1503600492972,-12,-20,-12,-4,-2,0,-1,-4
2216,2216,1503600492980,-12,-15,-16,-5,-3,-1,1,-2
2217,2217,1503600492994,6,-14,2,1,0,10,7,9
2218,2218,1503600493002,-15,9,-1,-1,4,-1,-2,5
2219,2219,1503600493003,-3,3,4,1,-5,1,-4,-11
2220,2220,1503600493010,11,-11,-8,-7,-7,-8,0,-2
2221,2221,1503600493024,13,36,13,5,13,19,-3,1
2222,2222,1503600493039,13,2,9,-1,3,-1,-2,4
2223,2223,1503600493040,-8,19,18,2,-1,3,-9,-13
2224,2224,1503600493054,-6,7,-4,0,-1,-1,2,2
2225,2225,1503600493067,-30,-31,-15,-8,-3,-7,-5,-3
2226,2226,1503600493068,31,20,2,-2,-1,7,6,9
2227,2227,1503600493072,-4,-6,-4,-2,-4,-5,-4,-2
2228,2228,1503600493084,-48,-14,-6,-1,-5,-9,1,-2
2229,2229,1503600493092,-2,-13,-11,-4,-1,3,3,4
2230,2230,1503600493100,15,5,0,-4,-2,-4,3,2
2231,2231,1503600493114,3,2,-1,0,0,-2,-1,-2
2232,2232,1503600493122,15,-34,-5,-2,-3,3,-1,-8
2233,2233,1503600493131,4,34,21,4,-1,1,-5,-1
2234,2234,1503600493144,-8,-1,-4,-1,-2,-3,-3,5
2235,2235,1503600493152,-48,-17,4,0,-2,-1,-2,-12
2236,2236,1503600493159,18,-6,-11,2,0,-3,-1,-11
2237,2237,1503600493174,7,7,-7,-2,-1,2,5,-4
2238,2238,1503600493182,-105,-34,-7,-3,-4,6,-4,-14
3034,3034,1503600501004,-17,-21,1,-1,-7,-21,-12,21
3035,3035,1503600501011,-12,-19,-17,-7,-3,-1,-4,-9
3036,3036,1503600501026,-37,-4,-6,-3,4,14,0,-15
3037,3037,1503600501033,10,12,-1,-2,-1,-20,1,8
3038,3038,1503600501042,35,25,11,3,2,6,3,1
3039,3039,1503600501057,11,0,-1,5,8,2,9,5
3040,3040,1503600501064,-22,-12,-2,-1,-4,0,-1,-1
3041,3041,1503600501071,-14,-1,1,-1,6,5,-6,15
3042,3042,1503600501088,-4,3,3,1,-5,-26,-2,-3
3043,3043,1503600501093,-8,6,1,-1,-6,-8,-3,-3
3044,3044,1503600501101,-7,11,1,0,3,5,-2,-6
3045,3045,1503600501116,13,-1,-6,-3,2,9,1,4
3046,3046,1503600501126,-14,2,5,-2,-3,5,1,-7
3047,3047,1503600501132,-19,-16,-1,-3,-6,-11,-9,-10
3048,3048,1503600501146,17,41,20,3,2,-7,2,19
3049,3049,1503600501155,25,33,7,-2,-5,1,5,-2
3050,3050,1503600501162,6,-20,-10,-4,0,-9,-6,-7
3051,3051,1503600501176,-7,-5,4,3,-1,2,-14,-3
3052,3052,1503600501184,-1,-10,-1,-1,3,5,5,-7
3053,3053,1503600501192,5,-11,-4,-2,-5,12,11,10
3054,3054,1503600501206,3,-8,-5,0,-4,-3,-11,4
3055,3055,1503600501213,-19,-6,0,0,2,2,2,-5
3056,3056,1503600501222,24,-4,1,1,-6,-34,-6,4
3057,3057,1503600501223,-7,17,-3,-4,2,8,6,-5
3058,3058,1503600501236,60,23,7,4,8,20,7,19
3059,3059,1503600501246,-29,-21,-3,-3,-6,-5,1,4
3060,3060,1503600501252,-6,-7,-3,1,7,-1,-8,-8
3061,3061,1503600501267,0,-5,1,-2,-2,5,0,-3
3062,3062,1503600501273,-9,25,6,1,0,10,0,-9
3063,3063,1503600501282,4,-4,-5,-3,2,4,-6,2
3064,3064,1503600501297,-21,-13,1,-2,5,11,1,1
3065,3065,1503600501304,7,-14,-5,-4,-2,-4,-4,-11
3066,3066,1503600501318,-4,-12,-5,-2,3,-1,0,-3
3067,3067,1503600501328,13,4,1,5,3,12,3,9
3068,3068,1503600501341,-6,2,-8,-4,-5,-15,-1,-13
3069,3069,1503600501343,9,-6,2,-1,-2,-4,-4,-4
3070,3070,1503600501357,13,41,6,2,3,3,-5,-11
3071,3071,1503600501364,-23,-13,3,-2,-3,-14,1,4
3072,3072,1503600501371,-38,-21,0,-5,-4,-6,1,-5
3073,3073,1503600501387,10,1,7,2,2,1,0,12
3074,3074,1503600501389,2,3,-13,-3,1,-6,-1,0
3075,3075,1503600501394,19,-9,-4,-3,-6,-18,-11,2
3076,3076,1503600501401,3,-1,2,-1,-5,-19,7,5
3077,3077,1503600501416,15,-4,-8,-3,-8,-11,-3,-6
3078,3078,1503600501426,-6,-11,-1,0,1,1,0,-10
3079,3079,1503600501431,-10,6,-3,-1,-10,-9,3,11
3080,3080,1503600501446,-8,17,9,4,9,36,12,-3
3081,3081,1503600501453,12,-22,-7,1,4,9,3,-1
3082,3082,1503600501462,-6,12,-2,0,-2,-5,-5,0
3083,3083,1503600501476,-2,12,10,1,-2,-7,2,6
3084,3084,1503600501484,12,-17,-11,-3,-1,-1,-4,-2
3085,3085,1503600501492,-5,8,8,-1,-1,-1,-5,-9
3086,3086,1503600501507,7,25,14,6,5,-1,-4,7
3087,3087,1503600501514,15,-7,-2,-1,3,-3,-1,-46
3088,3088,1503600501526,0,-16,-6,-3,-4,-5,1,5
3089,3089,1503600501536,-12,24,2,-4,-7,-5,-2,13
3090,3090,1503600501544,21,3,0,2,-6,-32,-1,14
3091,3091,1503600501551,-14,-13,0,-1,-3,-9,5,5
3092,3092,1503600501567,-11,-3,-3,-4,-2,13,-6,0
3093,3093,1503600501573,-8,-23,-3,1,1,-1,-10,1
3094,3094,1503600501582,-7,10,-4,-1,4,13,7,-7
3095,3095,1503600501596,-9,0,7,2,4,4,4,17
3096,3096,1503600501604,15,1,4,1,-7,-8,6,16
3097,3097,1503600501611,-16,-3,-3,-1,-4,2,8,12
3098,3098,1503600501627,13,-3,6,4,2,-10,2,-37
3099,3099,1503600501633,-3,-12,-4,-1,2,22,-7,-11
3100,3100,1503600501641,-28,-23,-9,-5,0,19,-6,-5
3101,3101,1503600501661,10,0,7,6,-1,-6,-2,-7
3102,3102,1503600501665,16,54,5,3,5,6,-2,7
3103,3103,1503600501672,-7,13,-3,-1,2,-5,1,-7
3104,3104,1503600501686,-16,-29,2,1,6,12,-6,-1
3105,3105,1503600501693,-19,-13,-6,-1,-5,-4,16,12
3106,3106,1503600501694,0,3,-10,-6,-6,-1,4,0
3107,3107,1503600501701,9,-3,6,5,26,22,-7,-3
3108,3108,1503600501702,-6,-6,-6,0,-14,-15,4,2
3109,3109,1503600501716,-1,-21,-7,-8,-8,-35,-1,5
3110,3110,1503600501728,2,16,-7,-6,0,3,-1,-5
3111,3111,1503600501732,-22,-12,1,-1,0,17,6,16
3112,3112,1503600501746,-29,-21,-7,-1,0,-2,-2,-7
3113,3113,1503600501753,32,-11,-1,3,0,7,-10,-17
3114,3114,1503600501762,1,-27,-5,-6,-8,-15,-11,6
3115,3115,1503600501776,34,8,5,5,3,-4,-7,-28
3116,3116,1503600501784,18,0,3,-6,-23,-14,1,4
3117,3117,1503600501799,-1,-5,0,-3,-1,10,-5,20
3118,3118,1503600501806,-16,0,0,-4,-1,4,-6,-4
3119,3119,1503600501813,-19,-5,-10,-3,1,7,3,17
3120,3120,1503600501830,-46,-5,-2,1,3,-6,-7,0
3121,3121,1503600501836,-6,6,-4,0,1,-14,-1,-4
3122,3122,1503600501844,23,-7,-3,0,4,-5,2,-8
3123,3123,1503600501860,-23,-3,6,-3,-5,0,1,10
3124,3124,1503600501868,15,14,4,4,4,16,11,9
3125,3125,1503600501873,13,6,-1,0,-4,-10,-3,15
3126,3126,1503600501889,3,-6,-1,3,13,22,12,-1
3127,3127,1503600501896,-11,5,3,0,6,26,8,-4
3128,3128,1503600501904,0,-11,-2,-2,-2,-5,-5,6
3129,3129,1503600501919,-10,-17,17,4,0,-12,-8,-20
3130,3130,1503600501928,-12,-7,-6,-3,-1,-8,-3,8
3131,3131,1503600501936,-6,-20,-12,-5,1,24,4,3
3132,3132,1503600501949,-1,19,7,-2,-4,-11,-12,-11
3133,3133,1503600501957,1,3,-8,-10,-9,-12,-6,-1
3134,3134,1503600501964,23,-20,-13,0,3,3,3,-6
3135,3135,1503600501979,7,2,4,7,5,-5,3,-19
3136,3136,1503600501986,17,-10,-10,-5,-4,-11,-7,2
3137,3137,1503600502003,12,-6,-5,-2,-5,-22,1,3
3138,3138,1503600502009,-23,5,-4,1,1,3,-15,-1
3139,3139,1503600502017,10,31,-1,0,1,-2,-11,-1
3140,3140,1503600502024,-10,-27,-13,-7,-2,0,6,4
3141,3141,1503600502039,-6,-22,9,9,5,13,1,-13
3142,3142,1503600502046,20,-5,-10,-2,1,9,4,-1
3143,3143,1503600502063,6,0,2,7,1,-6,7,9
3144,3144,1503600502069,-5,12,9,6,3,-22,0,-8
3145,3145,1503600502077,-11,-10,-10,-6,-4,-37,19,2
3146,3146,1503600502084,-24,1,8,-4,-3,10,6,-11
3147,3147,1503600502099,-9,5,5,2,1,3,-5,5
3148,3148,1503600502106,12,10,10,3,3,25,-4,7
3149,3149,1503600502130,-10,-17,-1,-2,0,23,2,-4
3150,3150,1503600502131,-19,-22,8,4,2,-7,0,5
3151,3151,1503600502137,-5,-17,-11,-6,-3,12,-14,-1
3152,3152,1503600502144,20,25,12,0,-1,4,2,5
3153,3153,1503600502161,-10,17,-1,-1,5,-4,-31,2
3154,3154,1503600502166,11,-11,3,-3,-4,15,8,3
3155,3155,1503600502167,-4,6,-2,0,2,-15,0,-10
3156,3156,1503600502182,-7,26,-5,-6,-9,-40,9,20
3157,3157,1503600502189,10,23,8,5,-1,-6,-6,-1
3158,3158,1503600502197,11,-39,-5,-2,-3,3,12,11
3159,3159,1503600502204,-2,15,6,-6,-3,5,4,9
3160,3160,1503600502219,29,21,10,0,-2,11,11,-3
3161,3161,1503600502230,9,-2,-10,-6,-12,15,14,-4
3162,3162,1503600502242,28,46,-2,-3,-3,3,-5,-8
3163,3163,1503600502250,-1,-2,-5,-3,3,25,-6,-1
3164,3164,1503600502257,-22,2,-3,0,1,3,9,-8
3165,3165,1503600502264,4,30,15,0,-3,-17,-11,-3
3166,3166,1503600502280,6,-5,1,2,5,20,-7,8
3167,3167,1503600502286,-26,-25,-2,8,5,-14,16,1
3168,3168,1503600502302,1,7,-10,-9,-12,-30,-5,2
3169,3169,1503600502309,-15,-20,-13,-4,0,7,5,5
3170,3170,1503600502317,43,6,5,3,-4,13,-1,0
3171,3171,1503600502324,43,27,-6,-3,2,3,-3,-23
3172,3172,1503600502339,-22,13,13,-1,1,4,-7,-8
3173,3173,1503600502346,-14,-3,0,-1,-4,-2,-7,10
3174,3174,1503600502354,-2,-24,-7,-1,5,14,11,-15
3175,3175,1503600502369,-5,8,12,1,-1,-14,-14,-2
3176,3176,1503600502378,10,-11,-5,-2,0,2,-23,2
3177,3177,1503600502384,-5,-11,-6,-2,-2,-4,0,8
3178,3178,1503600502401,3,-35,-8,-1,4,11,5,-9
3179,3179,1503600502406,27,34,17,2,1,-7,-7,-13
3180,3180,1503600502421,-17,-12,0,0,1,-6,4,2
3181,3181,1503600502431,22,0,5,4,2,-15,3,-1
3182,3182,1503600502438,4,-11,-1,0,-3,-16,-4,9
3183,3183,1503600502444,2,-30,-5,-3,-7,-27,-18,-1
3184,3184,1503600502459,-5,45,7,2,2,-6,3,-3
3185,3185,1503600502466,-14,4,-12,-3,0,11,-1,-3
3186,3186,1503600502481,-5,-9,-8,-4,-2,6,14,21
3187,3187,1503600502489,-1,-26,-15,-3,-2,8,8,1
3188,3188,1503600502500,-2,25,18,3,-2,-6,1,8
3189,3189,1503600502505,-19,-23,2,0,-8,-9,-3,13
3190,3190,1503600502520,-45,-7,-13,-2,-2,-8,-9,-24
3191,3191,1503600502527,-10,-8,-4,-2,1,-8,5,2
3192,3192,1503600502541,-4,13,2,-4,0,12,1,1
3193,3193,1503600502542,-9,-15,-6,-1,-4,-5,3,-17
3194,3194,1503600502549,-29,10,3,-3,-1,5,-7,-9
3195,3195,1503600502557,-1,-16,-13,-3,-3,-7,-5,-9
3196,3196,1503600502568,28,44,17,5,1,0,7,4
3197,3197,1503600502579,-9,18,-7,-4,-6,-17,-14,7
3198,3198,1503600502580,5,-33,-6,-3,5,15,-2,-9
3199,3199,1503600502587,-7,-35,-16,-4,4,5,5,-7
3200,3200,1503600502602,34,29,6,-1,5,20,9,15
3201,3201,1503600502609,13,5,-6,-6,-4,6,-1,12
3202,3202,1503600502624,-5,-8,0,3,5,26,1,3
3203,3203,1503600502625,-26,-7,-7,-3,0,8,-7,-9
3204,3204,1503600502640,1,30,1,-3,-5,-21,-4,-7
3205,3205,1503600502646,6,-15,-4,2,3,12,-6,-14
3206,3206,1503600502664,6,-3,1,-1,1,-12,-12,-3
3207,3207,1503600502669,-10,-7,-8,-1,8,8,-3,7
3208,3208,1503600502677,-3,-2,-7,-5,-2,3,-10,-18
3209,3209,1503600502684,2,8,8,0,-1,9,3,3
3210,3210,1503600502700,18,-7,0,0,0,7,-12,-6
3211,3211,1503600502706,14,29,-5,-2,-1,-1,2,2
3212,3212,1503600502722,18,-9,2,3,-3,-10,1,2
3213,3213,1503600502735,3,-5,2,-1,-4,-13,5,-3
3214,3214,1503600502740,0,2,0,-1,-4,-33,7,14
3215,3215,1503600502751,3,-11,0,1,3,10,8,8
3216,3216,1503600502760,-9,-10,-3,-3,-11,-10,6,0
3217,3217,1503600502768,18,41,10,-2,-4,-15,-5,1
3218,3218,1503600502781,5,-6,-1,0,0,-5,-9,-6
3219,3219,1503600502789,-1,-7,7,5,-1,0,4,4
3220,3220,1503600502801,-7,30,4,0,2,26,9,4
3221,3221,1503600502811,-37,-7,-6,-2,-7,-7,-7,-4
3894,3894,1503600509456,-5,10,-1,-1,1,2,0,8
3895,3895,1503600509464,2,2,4,0,-4,-3,-6,-3
3896,3896,1503600509481,-14,-8,-4,-2,-1,-3,-5,-2
3897,3897,1503600509487,-3,-8,-1,0,0,0,-1,1
3898,3898,1503600509493,1,-4,-3,-2,-1,0,-3,-1
3899,3899,1503600509508,-11,-3,1,-1,-2,1,3,0
3900,3900,1503600509516,2,-2,0,0,-1,0,0,-4
3901,3901,1503600509524,-1,0,-1,-2,-5,-1,-5,0
3902,3902,1503600509538,9,8,1,-3,-6,-2,0,-2
3903,3903,1503600509547,1,11,-4,0,-1,0,-2,-9
3904,3904,1503600509554,2,-8,-6,-1,3,2,2,-3
3905,3905,1503600509569,5,7,2,0,0,1,-3,-1
3906,3906,1503600509576,8,-9,-1,0,1,-1,3,7
3907,3907,1503600509585,10,6,-3,-1,1,-2,-1,-5
3908,3908,1503600509598,1,-14,-2,0,-1,1,-1,-1
3909,3909,1503600509606,7,3,5,0,1,0,1,1
3910,3910,1503600509615,-4,6,2,0,0,-1,-2,-3
3911,3911,1503600509628,-4,-2,-5,-2,-3,-1,0,2
3912,3912,1503600509636,8,13,5,3,7,1,-1,-3
3913,3913,1503600509647,4,0,-1,1,1,1,2,4
3914,3914,1503600509659,7,30,3,3,0,0,1,3
3915,3915,1503600509666,-11,-19,-6,-2,1,-2,-2,-2
3916,3916,1503600509673,0,14,3,0,-2,-2,-9,0
3917,3917,1503600509674,0,-7,2,-1,-2,0,1,2
3918,3918,1503600509689,-7,-21,-10,-2,-2,-1,1,0
3919,3919,1503600509696,-13,-25,-7,-3,-2,-3,-5,-5
3920,3920,1503600509704,6,3,2,-1,-5,-2,6,3
3921,3921,1503600509720,3,7,3,-2,-2,1,3,2
3922,3922,1503600509726,-10,-14,-3,-2,-1,-4,-6,-13
3923,3923,1503600509733,-4,-18,-5,-4,-2,-3,-2,-4
3924,3924,1503600509750,0,7,0,1,-1,2,1,2
3925,3925,1503600509756,0,-5,-4,0,-3,0,-2,2
3926,3926,1503600509764,-16,-8,3,0,0,-3,-7,-7
3927,3927,1503600509782,-5,-3,-2,-1,2,1,0,-1
3928,3928,1503600509786,8,18,1,-1,-3,-1,-1,1
3929,3929,1503600509794,-3,6,2,0,-1,-2,-3,-1
3930,3930,1503600509808,3,0,0,0,2,2,2,1
3931,3931,1503600509817,-4,1,-2,-1,-2,0,-2,-4
3932,3932,1503600509824,1,-3,1,2,1,0,1,3
3933,3933,1503600509839,-17,-7,0,-2,1,4,-4,-3
3934,3934,1503600509848,0,0,-1,-3,-3,-2,-1,0
3935,3935,1503600509854,-4,13,7,0,4,-1,2,0
3936,3936,1503600509869,-3,-7,0,-2,-2,1,0,0
3937,3937,1503600509876,8,21,1,0,-2,0,0,2
3938,3938,1503600509886,0,-4,-1,1,0,-2,1,3
3939,3939,1503600509899,23,1,-2,-1,-4,-4,-2,-1
3940,3940,1503600509906,4,-2,-1,-4,-1,0,-4,-2
3941,3941,1503600509915,10,3,-2,-1,2,-1,3,2
3942,3942,1503600509928,5,7,0,-2,-5,-2,3,-1
3943,3943,1503600509936,-4,-5,0,4,1,-1,0,-2
3944,3944,1503600509944,-2,1,-2,5,4,1,-3,2
3945,3945,1503600509959,3,7,1,-1,-1,-1,0,0
3946,3946,1503600509966,-5,-14,-10,0,2,0,-1,-1
3947,3947,1503600509973,5,12,3,-4,-4,-3,-4,-4
3948,3948,1503600509989,4,10,5,5,4,1,0,-5
3949,3949,1503600509996,-10,-13,-7,-8,-11,-4,-1,2
3950,3950,1503600510004,-4,2,-1,-10,-13,-2,-10,-7
3951,3951,1503600510020,-1,-2,-1,-3,-10,-4,1,-3
3952,3952,1503600510026,-11,-12,-2,-2,0,-3,1,-4
3953,3953,1503600510033,-1,-4,-2,3,6,1,1,2
3954,3954,1503600510050,-3,-2,-1,-5,1,-1,-2,-6
3955,3955,1503600510056,8,0,0,4,2,-3,0,-1
3956,3956,1503600510057,-4,-5,-2,3,2,2,-2,-3
3957,3957,1503600510072,7,10,3,9,3,-1,-1,4
3958,3958,1503600510079,6,-3,-2,1,2,-1,2,2
3959,3959,1503600510089,15,5,2,-1,-4,1,1,2
3960,3960,1503600510093,-3,-5,3,7,7,2,-1,3
3961,3961,1503600510108,-1,-16,-5,2,4,-3,-1,-8
3962,3962,1503600510119,1,0,2,-3,-6,-2,-4,-2
3963,3963,1503600510125,-15,-1,1,0,-5,-3,-3,-2
3964,3964,1503600510139,1,-4,-4,-1,6,0,1,-2
3965,3965,1503600510146,1,1,-1,2,19,2,4,4
3966,3966,1503600510154,7,2,-2,-2,0,-1,0,0
3967,3967,1503600510168,-22,-16,-2,-2,1,4,-11,1
3968,3968,1503600510176,5,-3,-1,0,0,0,3,-3
3969,3969,1503600510192,3,12,2,-2,-7,-6,1,7
3970,3970,1503600510199,-16,4,-5,-3,-8,-5,-6,-4
3971,3971,1503600510207,2,5,4,-3,-6,0,5,-5
3972,3972,1503600510221,5,-9,-1,-1,0,-3,-8,-4
3973,3973,1503600510228,14,21,5,1,8,-1,5,-8
3974,3974,1503600510236,4,5,-2,-2,-1,0,-1,2
3975,3975,1503600510257,-1,19,15,2,4,1,2,9
3976,3976,1503600510258,7,-3,-1,-5,-11,-2,-6,-2
3977,3977,1503600510266,5,14,1,4,4,2,2,1
3978,3978,1503600510274,4,6,1,-4,-15,-9,1,0
3979,3979,1503600510280,-7,-8,-1,-5,-8,0,-3,2
3980,3980,1503600510289,-18,-4,-2,-4,-1,-3,2,3
3981,3981,1503600510296,-4,1,3,3,-1,0,4,2
3982,3982,1503600510311,27,9,-1,-1,1,2,0,-12
3983,3983,1503600510328,-11,2,-6,-1,-1,0,-4,3
3984,3984,1503600510340,17,9,2,2,-1,1,2,-5
3985,3985,1503600510341,3,-9,-3,-9,-10,-5,-1,-4
3986,3986,1503600510351,13,1,-1,7,7,6,1,5
3987,3987,1503600510356,-7,-1,-3,-3,-7,-1,-1,-5
3988,3988,1503600510371,-17,-7,-2,-7,-10,-15,-7,-3
3989,3989,1503600510379,-5,-10,-5,-8,-10,-3,2,5
3990,3990,1503600510394,-11,-5,-1,-1,2,0,0,4
3991,3991,1503600510400,-32,9,11,-1,3,1,-3,-5
3992,3992,1503600510409,-15,-6,-4,-5,3,7,0,-11
3993,3993,1503600510420,-4,-16,-9,7,2,-5,-1,-8
3994,3994,1503600510431,-6,-5,-3,4,-6,3,0,-3
3995,3995,1503600510439,1,10,0,-1,-2,-14,-6,-4
3996,3996,1503600510446,23,8,-1,-2,1,3,0,-13
3997,3997,1503600510461,13,2,2,2,5,3,1,4
3998,3998,1503600510468,-7,12,5,-6,-12,-6,-4,-4
3999,3999,1503600510469,8,-7,-2,6,12,1,5,11
4000,4000,1503600510476,15,3,-5,-2,1,5,-3,-3
4001,4001,1503600510491,-7,-13,-1,-1,-5,-5,1,3
4002,4002,1503600510498,10,-6,2,-1,-1,3,1,10
4003,4003,1503600510506,6,2,5,-1,-2,0,2,8
4004,4004,1503600510521,1,-7,-4,-4,2,4,-2,-1
4005,4005,1503600510529,-13,1,-4,-2,-2,3,-1,-6
4006,4006,1503600510536,15,17,2,6,5,2,4,-11
4007,4007,1503600510554,-3,6,-1,-6,-3,-3,-3,0
4008,4008,1503600510559,1,-6,-9,-1,-1,1,1,-1
4009,4009,1503600510566,-4,15,4,0,0,0,-1,-3
4010,4010,1503600510580,-6,-8,-1,-5,0,-1,-2,15
4011,4011,1503600510592,-2,-4,-7,-2,0,4,-1,1
4012,4012,1503600510598,-6,24,16,2,0,-3,-1,-3
4013,4013,1503600510611,19,-12,-6,0,0,-5,-2,-14
4014,4014,1503600510620,5,-6,-2,0,0,1,7,1
4015,4015,1503600510629,-13,-20,-7,-2,-2,-1,0,4
4016,4016,1503600510640,-12,-8,-3,-3,-3,-3,-7,2
4017,4017,1503600510649,-22,-29,-5,0,1,-6,1,6
4018,4018,1503600510656,-9,0,-3,-3,-2,1,1,5
4019,4019,1503600510671,-4,18,5,2,0,1,-8,-9
4020,4020,1503600510679,1,-3,-3,0,-2,3,1,7
4021,4021,1503600510694,2,8,0,-2,1,7,2,4
4022,4022,1503600510700,6,17,0,-3,-4,-6,-1,16
4023,4023,1503600510709,11,15,0,-1,-5,-2,0,3
4024,4024,1503600510716,6,-9,-10,-4,-2,2,-2,-1
4025,4025,1503600510732,-15,-12,-1,0,-2,-3,-2,2
4026,4026,1503600510739,-5,-12,0,2,3,9,6,-11
4027,4027,1503600510746,14,-9,1,-1,-3,-2,3,0
4028,4028,1503600510760,-4,-16,1,0,4,13,-3,-30
4029,4029,1503600510769,2,2,5,1,-1,-4,-2,6
4030,4030,1503600510776,-37,3,-3,-1,-1,-9,-7,-15
4031,4031,1503600510794,15,6,-2,-2,0,1,-5,8
4032,4032,1503600510799,11,8,2,2,-1,-5,2,0
4033,4033,1503600510806,-19,8,-1,-3,-3,-2,-2,-6
4034,4034,1503600510822,1,-2,-1,-1,-5,-7,-7,2
4035,4035,1503600510829,-3,1,-3,-3,0,1,3,-10
4036,4036,1503600510836,9,0,2,0,2,2,-1,0
4037,4037,1503600510851,10,-10,-4,1,3,6,-1,0
4038,4038,1503600510859,-23,-17,-8,0,-3,-6,-11,-4
4039,4039,1503600510866,13,12,6,-1,-1,-5,2,0
4040,4040,1503600510880,12,6,-1,-4,-2,1,0,-1
4041,4041,1503600510889,-2,1,-1,2,-1,2,6,-1
4042,4042,1503600510897,12,18,8,4,0,-5,4,4
4043,4043,1503600510911,-10,-18,-9,-3,-2,-4,-3,-10
4044,4044,1503600510922,-16,-3,-1,-2,0,0,0,12
4045,4045,1503600510927,5,5,2,-2,-4,-3,-1,2
4046,4046,1503600510940,10,5,-2,1,-1,-4,-5,-4
4047,4047,1503600510949,-2,20,12,7,5,2,-4,-1
4048,4048,1503600510956,-2,-8,-2,-2,-8,-7,0,3
4049,4049,1503600510971,0,-7,0,-1,0,4,-4,2
4050,4050,1503600510979,-16,-7,-1,-1,3,-5,4,1
4051,4051,1503600510986,-12,1,-5,-1,-1,-1,1,8
4052,4052,1503600511000,-1,-9,-6,-3,0,2,-2,-6
4053,4053,1503600511008,4,23,20,2,2,0,-7,-13
4054,4054,1503600511016,6,2,2,-1,1,1,2,-2
4055,4055,1503600511032,-5,-14,-7,0,3,0,-2,-1
4056,4056,1503600511038,0,-7,2,0,-1,-4,3,9
4057,4057,1503600511046,-15,-19,-15,-5,-8,2,-2,11
4058,4058,1503600511060,18,-3,-3,-2,-3,-3,11,-3
4059,4059,1503600511068,-13,-1,-2,1,0,-4,-3,-8
4060,4060,1503600511076,2,-2,-1,-1,4,19,-7,-7
4061,4061,1503600511092,4,-3,-1,0,1,-4,-3,0
4062,4062,1503600511099,0,14,9,1,0,-1,-3,-2
4063,4063,1503600511113,-2,5,-3,-4,-3,-3,0,-3
4064,4064,1503600511120,2,-2,-3,0,-2,-9,-5,8
4065,4065,1503600511129,9,-2,5,1,-1,1,7,0
4066,4066,1503600511143,-4,-14,-6,-1,-2,-1,0,-6
4067,4067,1503600511151,10,-6,-9,-2,2,2,-2,5
4068,4068,1503600511159,-11,-15,-11,-2,1,2,-6,2
5351,5351,1503600523503,-6,5,4,-3,1,-1,-2,5
5352,5352,1503600523512,-2,-6,0,1,1,-2,-1,-1
5353,5353,1503600523525,5,37,11,1,2,2,0,1
5354,5354,1503600523534,-1,-1,-2,-2,0,-2,-1,1
5355,5355,1503600523540,-1,-7,-5,-1,-3,0,-5,-4
5356,5356,1503600523541,-2,-12,-6,-4,-1,-2,0,2
5357,5357,1503600523556,0,9,0,2,1,3,1,0
5358,5358,1503600523563,4,0,-2,4,-1,-2,-2,-2
5359,5359,1503600523571,2,-7,-2,0,-3,-1,-1,-1
5360,5360,1503600523586,1,-2,3,-4,-3,-1,-2,0
5361,5361,1503600523593,-3,-1,-2,0,0,-1,-2,0
5362,5362,1503600523601,-2,-10,-4,-3,-1,0,1,0
5363,5363,1503600523617,-1,0,0,-3,-3,-2,0,-3
5364,5364,1503600523623,-7,-16,-5,-2,1,0,0,-3
5365,5365,1503600523631,0,9,5,-2,-1,-2,-4,-3
5366,5366,1503600523646,-7,-9,-3,-4,-2,-3,-5,-4
5367,5367,1503600523654,-3,-5,0,-1,-1,-5,0,-2
5368,5368,1503600523660,1,6,8,3,2,3,-2,1
5369,5369,1503600523678,0,-1,-4,-2,-2,-2,0,4
5370,5370,1503600523683,-1,11,-2,-2,0,2,0,4
5371,5371,1503600523694,2,4,3,2,1,-1,2,-1
5372,5372,1503600523705,0,5,1,-3,-2,-1,0,1
5373,5373,1503600523713,-6,-5,-2,3,0,1,0,-3
5374,5374,1503600523721,-1,-8,-2,1,0,-3,-2,-2
5375,5375,1503600523745,4,-3,-2,-2,-1,1,2,4
5376,5376,1503600523751,-2,0,-1,-2,-2,3,3,2
5377,5377,1503600523765,-7,5,1,-3,-3,-3,0,1
5378,5378,1503600523774,2,3,-3,-2,-1,-2,-2,0
5379,5379,1503600523781,7,0,-2,-1,-1,-1,1,0
5380,5380,1503600523796,-5,-6,-1,1,-1,-2,-3,-1
5381,5381,1503600523803,-12,-13,-4,-3,0,-2,-2,-6
5382,5382,1503600523813,-3,-4,1,-1,2,0,0,-4
5383,5383,1503600523825,0,-4,-2,-1,-2,-1,0,-3
5384,5384,1503600523833,-4,-5,-4,-2,-2,-3,0,0
5385,5385,1503600523840,3,-6,3,1,1,1,0,0
5386,5386,1503600523856,-4,2,-2,0,-1,3,-1,-1
5387,5387,1503600523863,4,0,-1,-4,0,0,0,-2
5388,5388,1503600523871,-8,-9,-6,-4,-3,1,0,1
5389,5389,1503600523886,-9,-4,-5,-4,-5,-4,0,-6
5390,5390,1503600523893,5,0,-1,-5,-3,-6,-1,2
5391,5391,1503600523900,11,8,-4,-1,1,2,-2,-11
5392,5392,1503600523916,12,5,-3,-3,-3,-3,-1,-1
5393,5393,1503600523923,-7,5,14,5,0,-3,-2,0
5394,5394,1503600523939,13,0,0,-5,-1,1,2,1
5395,5395,1503600523947,4,-6,-5,-2,-5,1,1,0
5396,5396,1503600523955,1,-3,4,3,0,2,0,2
5397,5397,1503600523960,-5,-3,-1,4,1,-3,0,-11
5398,5398,1503600523976,-1,1,1,5,5,2,1,3
5399,5399,1503600523983,2,-9,-7,-6,-1,2,1,0
5400,5400,1503600523991,-16,20,9,1,-2,6,-5,-13
5401,5401,1503600524005,-1,-13,-5,1,3,3,-1,5
5402,5402,1503600524016,-4,-1,-5,-4,-4,-6,-2,2
5403,5403,1503600524023,7,5,3,4,5,5,1,4
5404,5404,1503600524036,-1,-4,-1,-1,0,4,0,-1
5405,5405,1503600524043,-18,-5,2,4,-5,-7,-4,-1
5406,5406,1503600524051,0,3,0,2,-1,-4,-4,1
5407,5407,1503600524065,7,-4,-6,-3,-2,-2,2,0
5408,5408,1503600524073,8,-9,-4,-4,0,-3,-1,4
5409,5409,1503600524080,-11,-10,-7,-5,-3,-2,-1,3
5410,5410,1503600524081,-4,1,1,0,-1,-1,-1,-4
5411,5411,1503600524096,3,-3,1,-1,-2,-3,0,-2
5412,5412,1503600524103,-3,5,-2,-2,-3,-3,-3,3
5413,5413,1503600524111,0,8,4,3,1,-6,1,2
5414,5414,1503600524125,7,0,-2,-2,-3,-4,-3,0
5415,5415,1503600524133,-9,2,6,3,3,6,-1,2
5416,5416,1503600524148,-2,18,3,-3,-1,-3,-1,1
5417,5417,1503600524157,-17,-26,-12,-2,-2,-3,-1,-2
5418,5418,1503600524163,3,6,4,6,-2,1,0,-2
5419,5419,1503600524184,7,-10,-16,-5,-1,0,1,0
5420,5420,1503600524187,5,19,-4,-4,0,0,-3,4
5421,5421,1503600524197,7,-9,-3,0,-2,-3,-2,-2
5422,5422,1503600524208,-2,-8,3,3,2,-1,0,3
5423,5423,1503600524217,-1,3,3,0,3,1,3,-6
5424,5424,1503600524224,-2,7,9,0,0,-3,-1,3
5425,5425,1503600524239,0,-2,-2,-4,-1,1,0,-3
5426,5426,1503600524250,2,-21,-9,-3,0,-1,-6,-8
5427,5427,1503600524258,7,3,2,1,0,-3,-3,-4
5428,5428,1503600524268,-3,-3,-5,-4,-3,-3,2,7
5429,5429,1503600524276,-27,-14,-4,1,-1,-1,-3,0
5430,5430,1503600524283,1,14,8,4,4,1,0,-4
5431,5431,1503600524298,5,-2,18,12,5,1,3,1
5432,5432,1503600524306,-7,-16,-12,-2,-3,5,1,2
5433,5433,1503600524316,1,5,-2,-5,-6,4,-3,3
5434,5434,1503600524328,9,7,0,1,1,1,0,-5
5435,5435,1503600524343,7,11,2,-2,0,-1,2,3
5436,5436,1503600524344,3,0,-7,-11,-11,-5,-1,3
5437,5437,1503600524360,4,3,-4,2,-2,-9,-3,-3
5438,5438,1503600524365,2,-6,4,-6,-6,-10,-1,-12
5439,5439,1503600524373,-5,2,8,-3,2,3,1,0
5440,5440,1503600524389,-5,-3,-6,-6,-11,-10,-4,3
5441,5441,1503600524398,4,-2,-9,1,0,-1,-3,-13
5442,5442,1503600524403,-15,-22,-6,-2,1,0,-2,-2
5443,5443,1503600524418,12,20,5,-3,-6,0,0,6
5444,5444,1503600524427,2,-3,-3,8,3,3,1,-7
5445,5445,1503600524433,0,7,1,-5,-3,2,0,-1
5446,5446,1503600524453,-1,0,4,0,6,12,1,-6
5447,5447,1503600524456,2,-6,-2,0,3,0,-1,-3
5448,5448,1503600524463,-5,11,7,1,0,-5,-5,-8
5449,5449,1503600524478,-5,1,-5,-4,-1,2,0,-4
5450,5450,1503600524485,-3,7,-4,-10,-10,-34,-1,4
5451,5451,1503600524493,-20,-28,-5,-1,3,7,-2,1
5452,5452,1503600524508,2,0,-1,2,-1,0,-1,9
5453,5453,1503600524518,-2,-4,-5,-1,3,-5,-3,4
5454,5454,1503600524523,-3,-13,2,2,5,8,3,-6
5455,5455,1503600524538,5,15,8,1,-1,1,-2,-15
5456,5456,1503600524545,0,13,4,1,-5,-4,-3,17
5457,5457,1503600524553,-23,-9,-11,-6,-4,-7,-1,12
5458,5458,1503600524568,0,-4,0,9,3,5,-1,7
5459,5459,1503600524576,12,0,0,0,-1,10,3,4
5460,5460,1503600524584,-1,-8,-9,-4,15,27,-10,-6
5461,5461,1503600524598,-45,-3,-5,-3,-5,-4,-5,-35
5462,5462,1503600524605,7,12,15,5,5,7,4,-7
5463,5463,1503600524613,2,-4,-5,-2,1,-5,-2,8
5464,5464,1503600524628,-5,8,-4,-4,-6,-6,-1,-1
5465,5465,1503600524636,-4,-6,1,-1,-7,-13,-4,1
5466,5466,1503600524643,6,-7,-6,-4,2,4,6,8
5467,5467,1503600524659,6,-9,-2,3,0,0,-2,-3
5468,5468,1503600524665,-7,-12,0,1,2,1,1,-7
5469,5469,1503600524674,13,-15,-5,-2,-2,-3,-6,-6
5470,5470,1503600524689,25,21,14,4,0,-1,4,7
5471,5471,1503600524696,12,2,2,8,1,9,-1,3
5472,5472,1503600524703,16,-5,-13,-8,-6,-11,-4,0
5473,5473,1503600524720,6,7,4,-2,-1,1,4,10
5474,5474,1503600524725,-13,-8,-4,-2,-2,-1,-3,2
5475,5475,1503600524733,-2,-1,-6,-6,-4,0,1,-4
5476,5476,1503600524748,-7,-8,-7,-6,0,4,3,0
5477,5477,1503600524760,3,7,3,3,11,24,-1,6
5478,5478,1503600524770,-11,11,9,-1,-2,-3,4,0
5479,5479,1503600524778,25,12,0,0,2,-8,10,8
5480,5480,1503600524786,-9,3,-6,-6,1,2,-4,-18
5481,5481,1503600524793,7,-5,-7,-9,-5,-11,-5,-1
5482,5482,1503600524808,-4,-2,2,3,-4,-2,-1,-1
5483,5483,1503600524816,2,2,2,4,4,16,0,-18
5484,5484,1503600524823,-11,-5,-5,-1,-1,1,1,0
5485,5485,1503600524838,-11,0,4,1,-2,-3,-1,6
5486,5486,1503600524845,13,8,3,4,2,-2,-2,-6
5487,5487,1503600524854,-12,9,6,0,-3,-16,-1,-5
5488,5488,1503600524868,-10,-10,-5,-1,-4,-6,-5,7
5489,5489,1503600524876,3,3,2,0,-4,-2,0,17
5490,5490,1503600524883,-5,-10,5,0,-6,-20,1,4
5491,5491,1503600524898,7,8,5,-4,-4,-14,-4,-2
5492,5492,1503600524905,-18,-13,-8,-5,-1,4,-1,3
5493,5493,1503600524913,-12,-15,-2,1,2,1,2,-1
5494,5494,1503600524928,9,17,0,0,3,7,-2,1
5495,5495,1503600524936,4,-3,-3,0,0,-2,-2,6
5496,5496,1503600524943,3,8,5,5,-1,-2,0,-9
5497,5497,1503600524958,10,2,-2,-2,2,6,1,4
5498,5498,1503600524966,3,-10,-4,-4,-3,11,-7,2
5499,5499,1503600524973,-31,-10,-4,6,0,0,2,-3
5500,5500,1503600524988,24,5,9,4,4,7,6,0
5501,5501,1503600524996,0,-4,-6,-5,-5,-9,-6,-6
5502,5502,1503600525003,3,0,-3,-1,-4,-2,-1,9
5503,5503,1503600525020,24,22,9,1,-2,-6,2,12
5504,5504,1503600525025,-26,-15,-5,-2,-3,-5,-8,0
5505,5505,1503600525026,-8,-5,-3,-2,-2,0,-4,-5
5506,5506,1503600525033,-6,-13,-7,-4,-3,-6,-13,-13
5507,5507,1503600525048,-4,-6,0,1,0,-6,2,-10
5508,5508,1503600525056,11,12,4,-2,-2,-5,-3,6
5509,5509,1503600525063,6,3,-7,-5,-5,-2,1,-23
5510,5510,1503600525078,0,-3,3,-2,5,8,5,-13
5511,5511,1503600525087,-17,-7,-2,-3,-1,-6,-2,3
5512,5512,1503600525101,11,18,-5,1,-1,2,0,-16
5513,5513,1503600525108,-12,-6,-9,-4,1,-2,-1,-3
5514,5514,1503600525116,7,-12,-1,-2,-5,1,1,6
5515,5515,1503600525130,5,-1,1,0,0,-3,2,8
5516,5516,1503600525138,-4,7,-1,1,2,5,2,-1
5517,5517,1503600525145,13,-2,3,3,1,-8,-2,8
5518,5518,1503600525161,9,-6,1,2,3,11,3,7
5519,5519,1503600525168,-5,4,-5,4,-1,1,-7,13
5520,5520,1503600525183,24,-2,-1,-5,-1,8,11,-7
5521,5521,1503600525190,10,-4,0,-1,-1,13,-9,11
5522,5522,1503600525198,-25,5,3,0,-6,-13,-3,0
5523,5523,1503600525205,8,-6,-2,-1,0,-3,1,-2
5524,5524,1503600525222,-25,-11,-4,-2,-1,-8,-4,-2
6317,6317,1503600532756,-1,2,-4,-3,3,2,7,-1
6318,6318,1503600532765,2,-4,1,-3,2,2,3,-3
6319,6319,1503600532780,-1,-1,-1,-4,-2,0,-4,-10
6320,6320,1503600532787,2,-5,-4,-1,-1,-6,-1,-5
6321,6321,1503600532788,-4,6,6,6,4,1,2,1
6322,6322,1503600532795,6,35,10,0,-1,0,-2,-1
6323,6323,1503600532811,5,11,1,0,-4,-16,-1,-4
6324,6324,1503600532817,-4,-13,-1,1,-2,-3,4,8
6325,6325,1503600532818,0,-10,-6,-1,-1,0,-2,0
6326,6326,1503600532825,-6,-11,-2,1,-3,4,-6,-15
6327,6327,1503600532843,-3,-9,0,4,-1,-2,3,2
6328,6328,1503600532848,3,-13,-9,-2,-1,0,2,0
6329,6329,1503600532855,0,-4,-3,2,-1,6,-1,-1
6330,6330,1503600532870,-8,-8,-5,-2,2,5,-2,-6
6331,6331,1503600532881,-3,4,2,2,-3,4,3,4
6332,6332,1503600532888,-4,-7,-4,-3,-1,1,-1,13
6333,6333,1503600532905,-3,20,4,1,1,-3,-2,-2
6334,6334,1503600532908,-2,-29,-11,-4,-1,1,0,2
6335,6335,1503600532909,3,21,8,2,1,3,-1,2
6336,6336,1503600532915,-6,-22,-8,-11,-5,2,0,-1
6337,6337,1503600532930,1,-8,-2,-2,0,1,0,-1
6338,6338,1503600532937,-3,-2,-1,0,0,-3,2,-3
6339,6339,1503600532945,0,0,1,-2,-2,-4,-4,-5
6340,6340,1503600532946,-4,-2,-2,2,-2,-7,-8,-1
6341,6341,1503600532959,-3,-5,-1,1,-1,-1,2,3
6342,6342,1503600532967,2,-16,0,-1,1,4,3,-4
6343,6343,1503600532976,2,-9,-3,-2,-1,-3,-4,1
6344,6344,1503600532990,-4,2,-4,-1,1,2,4,4
6345,6345,1503600532997,-2,2,5,4,0,3,-1,-5
6346,6346,1503600533005,2,-11,-5,-3,-1,-2,1,-5
6347,6347,1503600533020,5,3,-1,0,0,-2,-1,-11
6348,6348,1503600533027,0,8,2,0,-1,-2,2,2
6349,6349,1503600533035,-4,-8,-2,-1,1,-2,0,2
6350,6350,1503600533050,5,26,6,2,3,1,-1,2
6351,6351,1503600533056,-1,-5,0,-2,-2,-2,-4,4
6352,6352,1503600533065,0,21,5,3,-2,0,-3,-6
6353,6353,1503600533079,6,-1,-6,-4,-1,4,-2,-12
6354,6354,1503600533089,-2,-6,-4,-1,0,1,1,7
6355,6355,1503600533095,-1,-8,-6,-3,-4,-3,2,4
6356,6356,1503600533110,1,-2,2,2,0,1,-7,-4
6357,6357,1503600533117,-2,21,3,-1,1,-2,5,1
6358,6358,1503600533125,-2,14,1,-2,-2,-3,4,-4
6359,6359,1503600533140,-5,-14,2,1,-3,-4,-4,-1
6360,6360,1503600533148,-3,-14,-4,-3,-3,-4,3,0
6361,6361,1503600533155,-1,-12,-3,3,3,-1,1,10
6362,6362,1503600533170,2,-13,-2,-4,-1,0,-4,-10
6363,6363,1503600533177,4,-4,-3,-2,-5,-18,-4,-10
6364,6364,1503600533185,-1,-12,-2,-9,-2,3,3,1
6365,6365,1503600533186,0,2,-1,6,0,-3,-5,1
6366,6366,1503600533199,1,0,2,-1,0,2,-10,2
6367,6367,1503600533207,0,5,3,1,-2,-2,-3,0
6368,6368,1503600533215,-1,14,3,0,-1,1,0,-3
6369,6369,1503600533230,3,-4,-2,-3,2,2,-1,1
6370,6370,1503600533237,-1,0,-3,-3,-3,-3,0,-3
6371,6371,1503600533248,-4,-9,0,-1,-1,-2,1,1
6372,6372,1503600533259,7,7,-6,-4,-1,-1,-3,7
6373,6373,1503600533267,1,-3,-3,-3,1,0,-1,-13
6374,6374,1503600533277,-6,-8,-5,-2,-3,1,3,2
6375,6375,1503600533290,4,3,-1,2,1,9,4,2
6376,6376,1503600533304,-6,17,5,2,2,1,2,-6
6377,6377,1503600533306,2,4,-1,-4,-2,-1,1,-1
6378,6378,1503600533321,-13,-13,-8,-5,-3,0,-2,-3
6379,6379,1503600533327,-3,-3,2,0,0,1,-3,-1
6380,6380,1503600533335,1,-12,1,1,1,-4,-1,-1
6381,6381,1503600533357,4,-12,-3,-2,-4,-5,2,-1
6382,6382,1503600533365,-6,-4,-2,-7,-1,-3,-2,1
6383,6383,1503600533382,3,-4,0,0,0,3,1,6
6384,6384,1503600533388,-4,-10,-2,-2,1,-4,1,7
6385,6385,1503600533395,1,-2,-2,0,-1,5,0,-3
6386,6386,1503600533412,-4,4,-2,0,-3,0,-2,1
6387,6387,1503600533417,-1,2,4,2,0,1,-3,-3
6388,6388,1503600533425,4,9,-1,-1,-2,-6,-5,-6
6389,6389,1503600533439,7,-6,-6,-5,-2,-4,1,-6
6390,6390,1503600533448,7,29,14,-3,1,-1,0,0
6391,6391,1503600533456,-2,3,0,0,-1,-2,0,1
6392,6392,1503600533470,-3,-6,-4,1,-2,0,3,-1
6393,6393,1503600533477,1,14,3,0,1,2,3,-2
6394,6394,1503600533492,-2,-9,-2,1,2,2,0,0
6395,6395,1503600533499,-5,-15,-3,-1,1,-2,-6,2
6396,6396,1503600533507,-2,-9,-5,1,-2,-25,-6,5
6397,6397,1503600533522,-2,-8,-3,-3,-1,2,1,1
6398,6398,1503600533530,7,16,14,6,0,4,-2,0
6399,6399,1503600533538,-2,-1,0,1,0,-8,-4,-2
6400,6400,1503600533553,-15,-14,-5,0,-2,1,-1,-4
6401,6401,1503600533560,1,-15,0,-2,-2,4,-1,-2
6402,6402,1503600533567,2,-4,-2,0,0,7,2,0
6403,6403,1503600533585,-5,-5,-1,3,0,-1,-3,-1
6404,6404,1503600533590,-1,-6,-5,-5,-2,-1,-1,-3
6405,6405,1503600533598,12,4,-1,6,2,10,1,4
6406,6406,1503600533614,-2,10,9,1,2,7,-1,3
6407,6407,1503600533622,-1,6,0,-5,-3,-4,-2,-2
6408,6408,1503600533627,-7,-17,-9,-1,-2,1,1,-15
6409,6409,1503600533643,-1,0,-1,-1,-2,-1,3,2
6410,6410,1503600533650,2,-11,-5,-5,-1,-1,-1,2
6411,6411,1503600533658,8,18,2,0,3,-1,4,0
6412,6412,1503600533672,-4,-7,-3,0,1,2,1,0
6413,6413,1503600533683,-1,2,-2,5,1,-2,-1,-2
6414,6414,1503600533688,-1,10,-2,0,-2,-3,0,2
6415,6415,1503600533703,-1,1,0,-6,-3,-4,-4,2
6416,6416,1503600533710,-2,2,-4,-4,-1,-3,0,1
6417,6417,1503600533720,8,3,-2,-3,-1,2,-1,-5
6418,6418,1503600533732,-18,-11,-5,-3,-4,-1,-1,0
6419,6419,1503600533740,-4,1,6,1,0,-1,1,3
6420,6420,1503600533749,-1,22,4,-1,-1,2,-3,0
6421,6421,1503600533763,-7,-6,-2,5,1,0,-7,-1
6422,6422,1503600533770,-6,-4,-2,-2,0,3,-9,-4
6423,6423,1503600533778,3,-8,-6,-7,-4,-1,1,1
6424,6424,1503600533792,0,10,2,0,-3,-5,-1,3
6425,6425,1503600533793,2,-3,-2,0,-2,3,2,-2
6426,6426,1503600533800,-4,8,-1,-1,0,-1,2,1
6427,6427,1503600533807,-2,3,-2,-1,-3,-4,2,0
6428,6428,1503600533824,-2,11,6,3,2,0,-2,-5
6429,6429,1503600533830,-11,-3,2,6,-3,-4,-1,-5
6430,6430,1503600533838,-8,5,-4,-4,0,4,-2,1
6431,6431,1503600533854,18,4,3,-4,0,0,1,2
6432,6432,1503600533860,5,-6,-3,3,1,-1,1,-8
6433,6433,1503600533867,13,-5,-4,-5,-3,-2,-4,-4
6434,6434,1503600533885,9,6,-1,1,0,-19,-5,4
6435,6435,1503600533890,-24,-2,2,4,-1,-5,3,1
6436,6436,1503600533891,3,-6,-2,-4,-1,6,0,4
6437,6437,1503600533898,0,-6,-2,-2,2,4,1,-4
6438,6438,1503600533912,10,1,1,1,0,-4,6,0
6439,6439,1503600533921,6,-6,-4,-6,-3,2,-1,2
6440,6440,1503600533927,-1,-11,-7,-3,0,-1,-3,0
6441,6441,1503600533943,-33,-17,0,4,4,1,-3,-2
6442,6442,1503600533950,-6,-2,4,2,-3,-8,-8,-2
6443,6443,1503600533965,8,-8,-2,-5,-5,0,1,6
6444,6444,1503600533972,12,0,-3,-4,1,-13,2,1
6445,6445,1503600533983,2,11,4,-4,-5,-4,2,0
6446,6446,1503600533988,7,13,7,-8,-8,-7,-3,2
6447,6447,1503600534003,-2,-1,-4,-4,-1,7,2,-4
6448,6448,1503600534010,-9,4,2,2,7,4,-1,-7
6449,6449,1503600534025,-37,-12,-9,-4,-3,-6,-5,-13
6450,6450,1503600534032,4,-8,-6,-2,-5,-2,8,6
6451,6451,1503600534040,15,1,-2,0,-1,-6,-3,6
6452,6452,1503600534052,8,-2,-1,2,1,11,-3,-2
6453,6453,1503600534063,22,3,3,-2,-2,-25,0,-1
6454,6454,1503600534070,-3,-2,1,3,2,-1,2,0
6455,6455,1503600534086,9,-4,-5,1,-1,10,-3,-1
6456,6456,1503600534093,-29,-25,-4,3,0,-1,-3,-6
6457,6457,1503600534101,-18,9,12,0,4,7,0,4
6458,6458,1503600534107,-2,0,-4,-2,-1,2,-2,9
6459,6459,1503600534123,-50,-25,-7,0,1,5,-3,-10
6460,6460,1503600534130,3,21,9,-4,-2,-2,-1,-1
6461,6461,1503600534145,16,12,4,1,-2,1,-1,8
6462,6462,1503600534152,-14,10,1,-4,-3,-1,-2,3
6463,6463,1503600534153,-4,-1,-6,-2,-1,-5,-4,-18
6464,6464,1503600534161,34,-17,-2,0,0,3,7,9
6465,6465,1503600534167,-18,0,-2,0,-2,-8,-14,-4
6466,6466,1503600534185,-3,1,-2,-1,-3,-5,-4,-4
6467,6467,1503600534190,-18,-12,-15,-4,0,6,-5,4
6468,6468,1503600534205,13,8,1,-1,-2,2,0,-5
6469,6469,1503600534212,2,-11,3,6,4,5,4,0
6470,6470,1503600534221,6,-3,1,7,-1,-11,2,7
6471,6471,1503600534227,8,-8,0,-1,5,8,3,5
6472,6472,1503600534243,-20,-10,-6,-5,0,5,-4,-12
6473,6473,1503600534253,5,-10,-2,1,-2,9,4,8
6474,6474,1503600534266,-11,9,4,-3,1,0,-1,-10
6475,6475,1503600534272,9,14,0,0,-3,0,0,-4
6476,6476,1503600534280,-20,10,2,-3,-2,3,-4,-9
6477,6477,1503600534287,5,6,10,2,1,0,-7,-10
6478,6478,1503600534288,-3,8,0,-3,-2,-6,3,1
6479,6479,1503600534303,5,14,-6,-2,-3,-3,-8,1
6480,6480,1503600534310,-15,-3,3,1,-3,-10,-5,-30
6481,6481,1503600534325,26,11,1,-3,-2,-5,2,8
6482,6482,1503600534332,6,7,0,-8,-3,-7,6,8
6483,6483,1503600534341,23,10,4,1,-9,-16,1,-6
6484,6484,1503600534347,-11,2,-4,-1,-5,-17,-1,0
6485,6485,1503600534363,29,37,8,-1,-1,3,2,16
6486,6486,1503600534370,3,3,-1,-1,2,8,2,6
6487,6487,1503600534392,-14,-8,-9,-3,-2,-1,-5,-2
6488,6488,1503600534393,-23,-21,-3,3,5,4,-7,-11
6489,6489,1503600534400,-9,-10,3,4,1,2,0,-11
6490,6490,1503600534407,-10,-4,-5,-2,-1,-1,3,6
6491,6491,1503600534423,-1,5,9,3,2,-4,-23,1
6492,6492,1503600534430,5,32,10,1,-1,-2,2,0
6493,6493,1503600534445,-54,-30,-8,-5,1,1,0,-6
6494,6494,1503600534454,15,-11,-5,-2,2,-3,-6,-9
6495,6495,1503600534461,24,27,3,1,4,11,1,3
6496,6496,1503600534475,7,-2,-1,3,0,15,-2,-7
6497,6497,1503600534483,-5,-6,-7,11,11,16,5,0
6498,6498,1503600534490,31,19,5,-1,4,-12,3,4
6499,6499,1503600534511,-7,-20,-9,-7,-8,-3,2,4
6500,6500,1503600534513,-32,-39,-5,-1,-8,-3,-7,0
6501,6501,1503600534521,53,-18,-4,-5,-4,-3,-3,9
7247,7247,1503600541682,9,10,6,3,4,1,1,-2
7248,7248,1503600541690,-6,-4,-1,-2,-1,-3,-1,2
7249,7249,1503600541700,-3,-4,-3,-1,-4,0,0,2
7250,7250,1503600541712,4,31,12,3,1,0,1,-4
7251,7251,1503600541719,-2,-8,-5,-5,0,-1,-3,-1
7252,7252,1503600541728,1,-13,-2,0,2,0,-1,4
7253,7253,1503600541742,-3,10,2,-3,-1,-4,-5,-4
7254,7254,1503600541750,-1,7,1,-4,0,2,-1,-4
7255,7255,1503600541757,2,-8,-4,0,-1,-4,-2,-6
7256,7256,1503600541772,-5,-8,0,0,-2,0,-4,0
7257,7257,1503600541779,-1,-6,-2,-1,-3,-2,-2,3
7258,7258,1503600541788,3,-5,0,1,1,0,-2,-2
7259,7259,1503600541803,-4,-5,-6,-3,-3,0,-1,0
7260,7260,1503600541816,6,22,8,0,1,3,3,3
7261,7261,1503600541817,-7,-3,-1,1,3,2,2,-2
7262,7262,1503600541833,-4,-10,-4,-3,-3,-3,1,-1
7263,7263,1503600541840,-2,1,1,0,0,-1,-3,1
7264,7264,1503600541847,0,-8,-3,-1,0,0,-3,-3
7265,7265,1503600541862,0,-2,-1,-3,1,-3,1,2
7266,7266,1503600541874,5,-3,-6,-3,-5,-3,2,2
7267,7267,1503600541884,2,1,3,0,0,0,-1,3
7268,7268,1503600541892,1,-15,-6,-4,-3,-4,-7,0
7269,7269,1503600541902,5,3,0,-2,-2,0,-2,2
7270,7270,1503600541914,-8,-8,-2,-1,2,-3,-2,-2
7271,7271,1503600541922,-1,7,3,1,1,-1,0,-3
7272,7272,1503600541931,-6,-3,-1,0,-3,1,1,-2
7273,7273,1503600541944,1,11,5,0,0,1,0,1
7274,7274,1503600541952,1,19,3,0,-1,0,0,-1
7275,7275,1503600541959,-4,-9,-5,-3,-1,0,0,-3
7276,7276,1503600541975,0,-12,-8,0,3,-3,-3,0
7277,7277,1503600541982,-1,20,7,1,-2,2,-1,2
7278,7278,1503600541990,-3,-4,-1,-2,-4,-3,0,-1
7279,7279,1503600542004,-6,-9,-3,-2,-1,-1,2,-3
7280,7280,1503600542012,3,1,-1,1,1,3,1,1
7281,7281,1503600542019,0,-6,-1,-3,-3,0,-5,-1
7282,7282,1503600542035,1,-2,1,1,-1,1,1,0
7283,7283,1503600542043,-4,-7,-3,0,3,4,1,0
7284,7284,1503600542050,-3,0,3,0,-2,-4,-3,0
7285,7285,1503600542064,2,12,3,1,4,-2,-2,3
7286,7286,1503600542072,2,3,-3,0,-2,-1,-2,1
7287,7287,1503600542080,-8,-11,-6,-1,-4,-2,0,-1
7288,7288,1503600542094,2,-3,-1,1,0,-1,2,-1
7289,7289,1503600542102,2,-8,-3,-2,-2,1,-1,-1
7290,7290,1503600542110,-5,5,3,-1,0,2,0,-3
7291,7291,1503600542124,3,8,4,1,-2,-2,1,3
7292,7292,1503600542139,2,-4,-2,3,0,-2,2,2
7293,7293,1503600542141,3,-6,-2,1,-1,0,-1,1
7294,7294,1503600542154,-12,-4,-2,-3,-2,-1,2,-1
7295,7295,1503600542162,4,-2,-3,-2,-2,-7,-2,-2
7296,7296,1503600542171,1,-1,-3,-3,0,0,-4,-2
7297,7297,1503600542184,-3,-2,-1,0,1,-1,-4,-4
7298,7298,1503600542192,-3,1,2,1,0,-1,-3,-2
7299,7299,1503600542208,-2,1,-1,-7,-2,-2,-3,0
7300,7300,1503600542214,-3,-3,1,5,-1,-4,-1,-3
7301,7301,1503600542215,-12,-3,-2,-5,0,3,1,-3
7302,7302,1503600542222,3,-2,0,-1,-1,-3,0,1
7303,7303,1503600542238,4,4,2,-1,1,-4,-3,1
7304,7304,1503600542244,0,-6,-2,0,-5,-3,-2,-5
7305,7305,1503600542252,1,0,-3,2,3,2,2,2
7306,7306,1503600542268,3,3,-1,1,-1,-2,-2,-1
7307,7307,1503600542275,19,4,-2,3,-1,2,0,3
7308,7308,1503600542289,6,-1,-5,1,-2,0,1,0
7309,7309,1503600542291,13,2,-1,-2,-4,-1,0,-1
7310,7310,1503600542305,-1,-8,1,2,2,4,1,0
7311,7311,1503600542312,4,-2,0,-1,0,0,-2,4
7312,7312,1503600542319,-16,-6,-3,-2,1,1,0,-5
7313,7313,1503600542335,-8,-6,-3,-3,0,-2,-3,-4
7314,7314,1503600542342,-10,-9,-2,6,-2,2,4,0
7315,7315,1503600542350,-9,-4,-1,-3,-2,-2,-2,-3
7316,7316,1503600542364,3,13,4,-1,0,-2,0,1
7317,7317,1503600542374,-5,-2,0,0,0,-3,-1,-4
7318,7318,1503600542379,4,-18,-9,-4,-3,-3,0,-1
7319,7319,1503600542394,-15,8,7,-2,-3,-5,-4,-2
7320,7320,1503600542402,-11,-13,0,1,0,-1,-2,-3
7321,7321,1503600542410,1,-1,-2,0,1,-3,-1,2
7322,7322,1503600542425,0,7,1,-1,-1,0,1,-4
7323,7323,1503600542432,-1,4,-4,1,-3,-3,-1,-2
7324,7324,1503600542439,3,-5,-2,-2,-1,-2,-1,2
7325,7325,1503600542440,-2,-2,0,-4,-2,-1,-3,-1
7326,7326,1503600542454,0,-11,-4,-3,1,2,4,1
7327,7327,1503600542462,-2,-1,2,-2,0,1,-1,-6
7328,7328,1503600542470,5,-2,-2,-2,0,1,-1,-3
7329,7329,1503600542484,10,12,2,0,-2,-1,-2,2
7330,7330,1503600542492,-1,-2,0,-8,-3,-2,-2,-4
7331,7331,1503600542501,4,0,-1,-2,1,-1,-1,4
7332,7332,1503600542515,-4,-3,-7,-1,-2,-2,-1,-1
7333,7333,1503600542522,-5,-9,-4,-2,-2,0,0,1
7334,7334,1503600542530,-10,-2,3,2,1,0,0,0
7335,7335,1503600542545,-15,5,2,1,-1,-4,0,-2
7336,7336,1503600542552,10,5,0,3,2,0,0,-4
7337,7337,1503600542559,-4,-14,-10,-4,1,0,-1,-3
7338,7338,1503600542574,15,-6,-3,2,0,2,3,2
7339,7339,1503600542582,3,-6,-5,-5,-5,-4,-3,-2
7340,7340,1503600542590,-25,-17,-3,2,0,-2,-4,-5
7341,7341,1503600542607,3,2,0,4,2,-1,-3,1
7342,7342,1503600542612,0,14,-1,-4,-2,-1,-2,3
7343,7343,1503600542620,-4,1,4,-6,-7,-4,-1,-3
7344,7344,1503600542636,2,-5,-2,-2,-3,-1,0,-1
7345,7345,1503600542642,-18,-4,-3,1,3,-2,-1,1
7346,7346,1503600542650,4,-7,-1,0,-1,-1,-2,0
7347,7347,1503600542664,16,-1,1,4,2,1,2,6
7348,7348,1503600542676,0,4,3,2,-1,2,-1,0
7349,7349,1503600542680,2,-3,-4,-1,-2,0,0,-3
7350,7350,1503600542694,4,37,24,2,1,-1,0,-3
7351,7351,1503600542706,-21,-2,-5,-6,-5,-2,-2,-6
7352,7352,1503600542710,7,-4,-6,0,-1,-3,-2,2
7353,7353,1503600542724,-2,4,6,1,5,1,0,-1
7354,7354,1503600542732,-12,-2,3,1,1,-1,1,-3
7355,7355,1503600542746,10,0,0,4,0,3,3,3
7356,7356,1503600542754,4,0,-4,-5,-4,-1,-2,0
7357,7357,1503600542762,-4,18,5,-2,-3,1,-1,-2
7358,7358,1503600542773,14,1,-4,-4,-2,-1,-3,2
7359,7359,1503600542784,7,6,2,-3,3,0,0,1
7360,7360,1503600542792,-5,-11,2,2,3,0,0,1
7361,7361,1503600542799,1,7,5,-2,-1,-2,-5,-3
7362,7362,1503600542814,3,-10,-9,-1,0,10,1,-4
7363,7363,1503600542822,2,-6,-10,-2,-2,-3,-3,4
7364,7364,1503600542841,-5,5,2,-2,-1,-6,-2,-1
7365,7365,1503600542844,7,22,2,3,-1,2,0,-16
7366,7366,1503600542852,-13,-19,-12,-4,0,4,0,-4
7367,7367,1503600542866,6,10,5,3,-6,-2,2,5
7368,7368,1503600542878,2,8,-3,1,-6,-7,-4,-2
7369,7369,1503600542882,-10,-16,1,0,0,-1,0,1
7370,7370,1503600542897,-13,-13,4,0,0,-4,0,1
7371,7371,1503600542905,-8,8,7,6,3,1,-1,-3
7372,7372,1503600542913,10,-1,-4,-1,-1,-4,-5,2
7373,7373,1503600542926,15,-10,-8,-5,-2,-3,0,5
7374,7374,1503600542934,16,3,0,0,1,2,4,5
7375,7375,1503600542942,-4,12,-2,-2,-2,0,-3,0
7376,7376,1503600542957,-11,6,0,2,5,2,-1,3
7377,7377,1503600542964,0,-8,-7,-10,-1,-5,-7,-3
7378,7378,1503600542972,-6,9,0,-5,-6,-11,13,5
7379,7379,1503600542986,14,19,5,2,1,0,0,-8
7380,7380,1503600542994,-3,-12,-5,0,3,10,1,-2
7381,7381,1503600543002,-43,5,10,8,5,10,-3,-6
7382,7382,1503600543017,13,-13,-3,-1,0,6,8,1
7383,7383,1503600543023,1,-41,-7,1,-1,-2,-2,4
7384,7384,1503600543032,1,-3,-2,-7,-3,-4,-9,-10
7385,7385,1503600543047,9,9,-3,0,0,-3,2,5
7386,7386,1503600543054,4,13,1,-2,-3,-4,-6,2
7387,7387,1503600543062,-1,-14,-7,-4,-3,-4,2,1
7388,7388,1503600543078,-5,5,-1,2,-1,-3,-8,-4
7389,7389,1503600543084,6,2,-3,-2,-4,-16,-4,2
7390,7390,1503600543092,-7,-6,-2,-3,0,4,-1,-3
7391,7391,1503600543107,-7,-13,1,-5,-2,-5,4,-9
7392,7392,1503600543114,-6,2,1,5,0,-9,2,-10
7393,7393,1503600543122,2,3,-4,-6,-2,3,1,5
7394,7394,1503600543139,-1,-23,-5,-2,-2,-11,-4,-5
7395,7395,1503600543140,2,11,9,1,-1,6,1,0
7396,7396,1503600543144,4,-4,-2,0,-1,2,-6,0
7397,7397,1503600543152,-4,-17,-4,0,0,-1,-1,3
7398,7398,1503600543166,-9,-13,-9,0,0,3,-2,-5
7399,7399,1503600543175,0,-6,1,-1,-3,-11,1,20
7400,7400,1503600543182,2,0,2,0,0,-2,-12,-1
7401,7401,1503600543197,-10,-14,-5,7,0,5,-6,5
7402,7402,1503600543206,10,7,-3,-3,0,5,5,-3
7403,7403,1503600543214,2,15,-13,-6,-5,-4,-1,-13
7404,7404,1503600543226,8,19,10,2,-1,-9,-2,-5
7405,7405,1503600543234,4,-15,-6,-5,-1,-9,-2,-5
7406,7406,1503600543243,2,-24,-7,-6,-3,5,4,14
7407,7407,1503600543257,-1,0,2,-3,3,5,0,2
7408,7408,1503600543264,16,4,-4,-2,-1,-2,4,1
7409,7409,1503600543273,-1,9,4,-1,-10,-14,-28,-8
7410,7410,1503600543286,-10,-16,-9,1,9,-19,6,0
7411,7411,1503600543294,-1,10,3,4,5,-4,3,-2
7412,7412,1503600543302,8,9,0,0,-9,-23,-11,-18
7413,7413,1503600543317,-20,-3,1,-1,3,6,7,-12
7414,7414,1503600543324,6,19,1,0,2,18,6,2
7415,7415,1503600543332,-22,-11,-15,-7,-5,2,-1,-3
7416,7416,1503600543347,-18,-1,-5,-1,2,9,-2,-6
7417,7417,1503600543354,11,-5,0,-2,-1,7,-1,1
7418,7418,1503600543362,3,-1,-1,1,-4,-10,13,6
7419,7419,1503600543384,-4,-6,2,1,2,-5,-3,3
7420,7420,1503600543392,-9,2,4,-3,6,-1,-1,1
7421,7421,1503600543407,15,4,1,-2,-6,10,4,8
7422,7422,1503600543415,-30,-3,0,-4,-10,-15,-6,-1
7423,7423,1503600543422,18,18,2,1,2,6,-4,-8
7424,7424,1503600543437,-8,-17,-8,-3,0,4,2,-3
7425,7425,1503600543444,-8,7,4,0,2,4,-2,0
7426,7426,1503600543452,18,-10,-4,-1,5,18,2,1
7427,7427,1503600543466,4,-5,6,1,-5,-7,-1,8
7428,7428,1503600543475,17,-22,-8,2,-5,-6,-1,-6
7429,7429,1503600543483,-7,-24,2,1,-3,-1,-7,1
7430,7430,1503600543497,-19,-7,-4,-5,-3,-8,-4,-10
7431,7431,1503600543504,-85,-6,1,3,2,0,-2,-10
7432,7432,1503600543513,25,0,-6,-3,-4,6,0,2
7433,7433,1503600543528,23,0,-8,-3,0,1,-2,-2
7434,7434,1503600543534,-59,3,-3,-7,-5,-1,-1,0
7435,7435,1503600543550,2,-21,-12,-6,-4,1,-6,-7
7436,7436,1503600543557,37,30,10,-1,-4,-4,-8,2
7437,7437,1503600543574,14,2,-2,-2,0,7,-3,1
7438,7438,1503600543577,-22,11,11,10,6,6,6,1
7439,7439,1503600543586,-47,16,21,3,3,3,-12,-24
7440,7440,1503600543594,18,-4,-5,-4,-5,-6,-21,5
7441,7441,1503600543602,6,1,2,-4,-5,-1,5,3
8114,8114,1503600550164,-2,-5,-3,2,7,-2,-1,-1
8115,8115,1503600550181,-6,-3,1,1,-1,-2,-2,-2
8116,8116,1503600550194,-1,0,0,1,-1,-4,-1,-4
8117,8117,1503600550202,-9,3,-1,-3,-4,-1,-4,-1
8118,8118,1503600550211,-6,-3,-1,-2,-2,-2,1,-2
8119,8119,1503600550224,1,-2,1,-3,-6,-4,2,-1
8120,8120,1503600550232,-6,2,-1,-2,0,-1,-2,2
8121,8121,1503600550242,-3,-5,-4,-1,1,1,2,2
8122,8122,1503600550257,6,3,9,6,4,0,-3,1
8123,8123,1503600550262,4,-11,-6,6,5,-1,-2,0
8124,8124,1503600550270,-7,-3,-4,-4,0,5,2,-7
8125,8125,1503600550284,7,-2,0,-5,0,-2,-5,-1
8126,8126,1503600550292,3,2,-4,-4,-6,-4,2,2
8127,8127,1503600550308,-3,1,2,2,1,3,-2,0
8128,8128,1503600550309,1,6,-2,-2,1,0,0,1
8129,8129,1503600550315,-7,5,-1,-4,-5,-2,1,-3
8130,8130,1503600550322,1,19,11,2,0,-2,2,0
8131,8131,1503600550336,-5,-1,-3,1,2,-4,-3,-2
8132,8132,1503600550344,-2,4,-2,-3,-4,0,-1,0
8133,8133,1503600550353,4,-1,0,-2,-1,-2,-2,2
8134,8134,1503600550366,-4,-1,-1,-1,-4,0,-4,-4
8135,8135,1503600550376,-2,-10,-4,2,2,-5,0,2
8136,8136,1503600550382,0,-5,-1,-2,5,3,0,-3
8137,8137,1503600550396,-2,-4,1,-1,-1,1,-4,-5
8138,8138,1503600550404,11,16,2,0,-3,-3,-1,0
8139,8139,1503600550413,-1,9,5,2,1,1,-2,-1
8140,8140,1503600550426,4,-3,0,0,-1,-4,-1,2
8141,8141,1503600550427,-7,-5,-4,0,1,1,-3,-3
8142,8142,1503600550434,2,-3,-5,-5,-5,1,0,-1
8143,8143,1503600550443,0,2,-1,4,3,0,1,3
8144,8144,1503600550457,4,0,1,0,-10,-6,-5,-3
8145,8145,1503600550464,-3,-8,0,-1,-4,4,1,-13
8146,8146,1503600550472,-16,-17,-8,-4,0,1,-1,1
8147,8147,1503600550487,4,0,4,-3,-2,-4,0,6
8148,8148,1503600550495,17,10,2,-1,4,0,-6,0
8149,8149,1503600550501,6,-2,-4,-3,-6,-4,-1,4
8150,8150,1503600550517,4,1,4,0,-9,-3,-3,0
8151,8151,1503600550524,-3,2,1,1,6,0,-3,-1
8152,8152,1503600550532,-9,-2,-3,-2,-1,1,2,0
8153,8153,1503600550548,-10,-4,-3,-4,-5,-2,-1,-2
8154,8154,1503600550554,1,-4,0,4,2,1,4,-2
8155,8155,1503600550562,-11,-8,-4,-3,-2,-1,-2,1
8156,8156,1503600550577,4,-2,-1,-3,-6,-2,3,1
8157,8157,1503600550586,9,4,0,3,1,2,1,3
8158,8158,1503600550592,-3,8,0,-3,0,1,2,5
8159,8159,1503600550607,-1,4,1,-3,3,-1,0,-3
8160,8160,1503600550615,2,0,-2,-1,2,-4,0,0
8161,8161,1503600550621,-4,-3,-3,-5,-1,-4,-6,0
8162,8162,1503600550636,3,2,1,0,0,0,0,2
8163,8163,1503600550644,-8,2,3,0,3,-1,-2,-3
8164,8164,1503600550652,-4,12,1,-2,0,-4,-1,-2
8165,8165,1503600550666,-7,-3,-3,5,1,-1,-2,-2
8166,8166,1503600550679,0,-5,-1,-4,2,0,-2,0
8167,8167,1503600550682,13,6,-2,-3,-4,4,4,-2
8168,8168,1503600550696,3,-9,-2,7,5,2,0,-2
8169,8169,1503600550704,-11,-9,-1,1,-2,-3,-1,-2
8170,8170,1503600550712,2,7,0,0,1,4,3,4
8171,8171,1503600550727,8,0,0,-2,-3,-3,1,1
8172,8172,1503600550734,2,-2,1,-3,-3,-3,-1,0
8173,8173,1503600550747,-4,-1,-3,-3,-1,1,-2,-2
8174,8174,1503600550756,6,-6,1,2,-2,0,-3,0
8175,8175,1503600550764,5,-3,2,1,0,-2,-1,-2
8176,8176,1503600550772,6,7,2,-3,-1,-5,1,5
8177,8177,1503600550787,11,2,0,0,1,-3,-1,5
8178,8178,1503600550794,1,0,2,-2,-1,-2,-3,-2
8179,8179,1503600550802,18,12,2,1,0,3,0,3
8180,8180,1503600550817,-3,-3,-5,-2,-4,-2,-2,-9
8181,8181,1503600550824,-3,-5,-3,-4,1,1,0,-1
8182,8182,1503600550832,-20,-14,-6,-2,-8,-4,-1,-5
8183,8183,1503600550847,-1,-5,-5,-2,-1,-1,1,1
8184,8184,1503600550855,-7,4,1,0,3,2,-6,0
8185,8185,1503600550861,7,-10,-5,-3,-2,-2,-2,-3
8186,8186,1503600550862,-4,-3,4,1,-3,-6,-2,0
8187,8187,1503600550879,1,4,1,-1,0,3,5,1
8188,8188,1503600550884,3,-8,-2,-1,-1,-2,-2,-3
8189,8189,1503600550892,7,9,0,1,3,-4,-3,0
8190,8190,1503600550907,-17,-2,-4,-4,-2,-1,-1,-2
8191,8191,1503600550915,28,34,-4,-3,-6,-2,-2,-1
8192,8192,1503600550922,11,19,2,0,0,-2,-2,2
8193,8193,1503600550936,-34,-17,-1,2,6,-2,-1,-6
8194,8194,1503600550937,-9,-9,-3,-2,-2,-1,0,2
8195,8195,1503600550952,-15,-13,-3,-2,-1,2,1,5
8196,8196,1503600550954,-8,-13,-3,1,6,-2,-5,-11
8197,8197,1503600550967,-10,-18,-2,-2,-3,-3,-1,-2
8198,8198,1503600550975,-6,-10,-4,-3,-2,-1,1,-4
8199,8199,1503600550983,-11,-17,-4,0,2,12,0,-2
8200,8200,1503600550997,-5,2,2,-3,-6,4,0,4
8201,8201,1503600551004,-3,5,-4,-2,-3,-8,-8,-5
8202,8202,1503600551012,-26,-21,-2,-1,0,4,1,-2
8203,8203,1503600551027,19,30,4,1,8,-3,-3,0
8204,8204,1503600551035,1,-6,-2,-4,-5,-2,1,0
8205,8205,1503600551041,-4,-3,-5,-3,-1,-1,-1,-1
8206,8206,1503600551057,16,14,1,1,1,-1,1,6
8207,8207,1503600551064,16,-1,0,-5,-5,0,-1,0
8208,8208,1503600551072,6,-12,-1,-2,-6,-1,-2,1
8209,8209,1503600551088,-2,12,-3,1,-5,-29,5,3
8210,8210,1503600551094,7,11,3,-1,-2,-4,6,-1
8211,8211,1503600551102,-11,-16,-2,-9,0,14,-3,-6
8212,8212,1503600551117,7,15,-1,1,2,-4,-1,0
8213,8213,1503600551124,-13,-17,-2,1,1,3,2,-3
8214,8214,1503600551132,-3,-10,-1,-2,3,7,-1,-1
8215,8215,1503600551147,-7,7,3,-2,-4,-7,0,2
8216,8216,1503600551155,-6,-14,-4,2,2,-4,-1,-1
8217,8217,1503600551161,14,14,1,2,-2,1,-1,-6
8218,8218,1503600551181,-6,-7,-5,-1,3,1,-1,6
8219,8219,1503600551184,1,0,3,3,1,2,-1,3
8220,8220,1503600551192,1,-4,-1,0,-2,1,-1,-3
8221,8221,1503600551206,-6,-6,-2,2,-1,5,0,-2
8222,8222,1503600551222,-3,-12,-3,5,6,-5,-7,-10
8223,8223,1503600551229,0,-4,-3,-6,-4,-2,-1,-2
8224,8224,1503600551246,10,-3,-5,-3,3,0,-3,0
8225,8225,1503600551259,3,4,0,1,1,-3,-4,-2
8226,8226,1503600551266,-6,-14,-3,1,-4,2,1,1
8227,8227,1503600551274,-2,-6,-12,-5,-1,0,-3,-11
8228,8228,1503600551289,-8,26,6,2,1,1,0,0
8229,8229,1503600551297,-6,16,20,-5,-1,3,0,5
8230,8230,1503600551304,-5,3,4,0,0,-3,-3,-5
8231,8231,1503600551319,-2,-3,-3,-1,-1,2,5,3
8232,8232,1503600551327,-13,0,2,3,2,2,0,-1
8233,8233,1503600551334,5,2,1,2,0,-3,-2,-1
8234,8234,1503600551350,11,-15,-11,-5,-7,-5,-2,-1
8235,8235,1503600551357,-2,-12,2,-1,-3,-2,-4,-4
8236,8236,1503600551364,4,14,2,-3,-3,0,1,-3
8237,8237,1503600551381,3,-4,-2,1,-3,1,2,1
8238,8238,1503600551387,2,2,0,7,-2,-1,-1,0
8239,8239,1503600551395,-7,3,-1,-1,0,1,-3,-4
8240,8240,1503600551409,-14,-19,-5,-6,-1,-2,0,-2
8241,8241,1503600551417,-4,-13,-7,3,-3,-4,0,1
8242,8242,1503600551424,1,-1,1,0,1,-1,0,-5
8243,8243,1503600551439,-3,6,-1,-2,5,-2,-6,-8
8244,8244,1503600551448,8,14,1,1,7,0,-3,5
8245,8245,1503600551455,3,6,2,-2,-3,6,7,4
8246,8246,1503600551469,-6,-6,0,-5,0,1,0,-1
8247,8247,1503600551477,12,35,18,3,1,0,-2,4
8248,8248,1503600551485,-2,-1,-2,0,-4,-3,-1,0
8249,8249,1503600551499,-13,-4,-1,2,-2,-3,1,2
8250,8250,1503600551506,4,-5,0,0,0,-1,-4,-15
8251,8251,1503600551515,-6,-6,-9,-4,-2,2,-4,0
8252,8252,1503600551529,-20,-15,-13,-3,2,3,0,2
8253,8253,1503600551537,6,17,7,1,0,-4,-4,1
8254,8254,1503600551544,-4,-9,-2,0,-1,-1,0,-1
8255,8255,1503600551559,5,-16,-8,-3,1,-1,1,-1
8256,8256,1503600551567,-5,1,3,2,1,-2,1,5
8257,8257,1503600551574,-9,-13,-11,-1,-4,-4,-1,-7
8258,8258,1503600551590,15,14,5,1,0,2,6,7
8259,8259,1503600551597,-35,-13,-13,-5,-4,-2,-5,-10
8260,8260,1503600551604,-7,-9,-5,-1,-3,1,-1,0
8261,8261,1503600551619,10,-7,-4,-2,-1,1,-1,-4
8262,8262,1503600551626,5,11,6,1,2,-4,-4,-2
8263,8263,1503600551642,3,-6,-2,0,3,2,3,2
8264,8264,1503600551649,3,-8,1,-3,-2,-1,-4,-6
8265,8265,1503600551658,-2,3,-2,-8,2,-3,2,2
8266,8266,1503600551664,15,2,-2,-2,-2,0,-1,3
8267,8267,1503600551683,-23,0,8,0,-2,1,-2,-1
8268,8268,1503600551687,-8,3,3,-2,-5,-3,-1,-5
8269,8269,1503600551694,14,-5,-3,0,1,0,0,4
8270,8270,1503600551695,11,-6,-4,0,0,-2,-2,0
8271,8271,1503600551709,3,3,-5,-2,-3,-4,-3,-1
8272,8272,1503600551717,-7,5,5,3,-1,2,0,-1
8273,8273,1503600551724,-11,-10,-1,-1,-1,-1,1,-1
8274,8274,1503600551739,4,3,1,1,0,2,3,1
8275,8275,1503600551750,6,-3,-3,-1,-3,-3,-1,3
8276,8276,1503600551755,-4,-23,-4,1,-2,-1,-1,-6
8277,8277,1503600551769,-1,4,4,-1,-1,-1,-3,-2
8278,8278,1503600551777,5,-5,-1,-3,-1,-2,-2,6
8279,8279,1503600551784,-1,4,-5,-4,-6,-4,-4,-4
8280,8280,1503600551785,-5,-5,2,2,1,3,1,-2
8281,8281,1503600551799,7,-2,-1,0,3,6,0,-3
8282,8282,1503600551806,-15,18,3,1,2,2,-3,-3
8283,8283,1503600551818,-3,-19,-3,2,1,-4,-1,1
8284,8284,1503600551829,2,-9,-4,-6,-2,-1,0,1
8285,8285,1503600551843,15,-10,-9,-2,-1,-1,3,9
8286,8286,1503600551844,-17,11,12,0,1,3,-4,-9
8287,8287,1503600551845,15,13,1,1,-2,1,0,-1
8288,8288,1503600551859,-11,-2,-5,-1,-4,-1,-3,-1
8289,8289,1503600551866,-11,-10,0,0,0,-2,-2,-2
8290,8290,1503600551874,-1,8,5,0,-4,-5,-4,-5
8291,8291,1503600551889,-3,-5,-2,-1,-3,-2,-6,-4
8292,8292,1503600551897,6,11,1,-1,-5,-8,-4,-3
8293,8293,1503600551904,14,-7,-5,-1,-1,-1,-1,1
8294,8294,1503600551919,8,16,8,-7,-6,-4,-4,-7
8295,8295,1503600551927,11,2,1,-1,2,4,7,4
8296,8296,1503600551934,-8,-6,-5,-2,2,-1,-5,-1
8297,8297,1503600551951,-6,2,0,-1,-1,-1,-1,9
8298,8298,1503600551958,3,5,4,2,0,2,0,0
8299,8299,1503600551964,-8,-16,-4,1,0,-6,1,3
8300,8300,1503600551979,2,-8,-6,1,0,2,0,-1
8301,8301,1503600551987,3,-1,3,0,-3,-2,-1,-5
8302,8302,1503600551994,-1,2,0,2,2,-1,1,-2
8303,8303,1503600552009,-3,14,-1,-1,-5,-4,2,-4
8304,8304,1503600552021,0,2,3,8,0,2,3,5
8305,8305,1503600552025,-9,-22,-9,-4,-3,1,5,-1
8306,8306,1503600552040,0,0,-4,-3,-1,-4,-4,-1
8307,8307,1503600552054,-18,-3,2,2,2,1,-5,-7
8308,8308,1503600552056,2,-5,0,-1,-4,1,4,-6
8309,8309,1503600552069,9,-14,-5,-1,-1,-1,0,1
8310,8310,1503600552077,-9,14,1,-1,-1,-2,-2,-1
8311,8311,1503600552085,-2,14,3,0,1,2,-4,-3
8312,8312,1503600552099,3,-10,-8,-1,-3,1,-3,-6
8313,8313,1503600552106,-10,-5,-4,-3,-1,-2,-5,-1
8314,8314,1503600552118,-15,6,7,-3,-2,0,-2,1
8315,8315,1503600552129,0,4,-5,-3,0,2,-1,-2
8316,8316,1503600552137,7,-11,-5,-3,1,0,2,2
8317,8317,1503600552151,1,5,1,-1,1,-3,-10,-5
8318,8318,1503600552160,-48,-12,-6,-4,-1,-5,-3,-8
8319,8319,1503600552173,4,-9,-4,-13,-6,2,4,0
8320,8320,1503600552183,28,31,5,4,1,-2,3,4
8321,8321,1503600552190,-9,-17,-9,-4,-2,4,-6,0
8322,8322,1503600552191,-6,-12,-4,-2,-6,-7,-1,-2
8323,8323,1503600552197,4,-2,8,-1,1,-3,-3,6
8324,8324,1503600552211,12,17,5,4,0,-1,-2,4
8325,8325,1503600552219,0,-23,-7,0,2,4,4,1
8326,8326,1503600552228,-16,7,10,3,2,1,1,-1
8327,8327,1503600552241,7,-11,-3,0,1,0,-2,-15
8328,8328,1503600552254,2,-7,-4,0,2,2,3,3
8329,8329,1503600552259,-1,-10,1,-1,-2,6,11,2
8330,8330,1503600552271,5,1,-8,-1,5,4,2,2
8331,8331,1503600552279,-7,3,-3,-6,-2,-3,-5,0
8777,8777,1503600556562,18,-2,-4,-1,-1,3,5,0
8778,8778,1503600556569,-6,-15,-9,0,-1,-8,1,11
8779,8779,1503600556577,5,8,4,0,-2,-3,5,8
8780,8780,1503600556591,-7,-3,-2,6,-4,1,0,3
8781,8781,1503600556601,-13,5,-1,-4,-3,-1,-7,2
8782,8782,1503600556607,-6,-2,0,-5,-2,3,-4,-3
8783,8783,1503600556622,4,12,4,5,4,0,-4,-10
8784,8784,1503600556629,5,-4,-3,-2,0,1,-1,0
8785,8785,1503600556637,-8,0,-5,-2,-1,-1,-2,-2
8786,8786,1503600556651,-5,-24,-12,-4,0,5,5,4
8787,8787,1503600556659,-14,15,3,1,0,9,1,8
8788,8788,1503600556666,-2,-11,-2,-3,-1,5,2,-1
8789,8789,1503600556682,1,-15,1,6,-2,4,3,-10
8790,8790,1503600556689,-3,-1,-3,1,-1,-6,-3,-2
8791,8791,1503600556697,12,5,-2,-5,-2,-3,-1,-5
8792,8792,1503600556712,21,0,1,-1,0,0,4,-12
8793,8793,1503600556719,21,-20,-2,2,1,-4,-1,-4
8794,8794,1503600556726,-2,1,2,0,-1,0,-4,-3
8795,8795,1503600556742,-6,4,4,1,2,-3,-5,-3
8796,8796,1503600556749,-3,-5,-3,-2,-1,3,1,7
8797,8797,1503600556757,13,1,-3,0,-2,-6,-2,5
8798,8798,1503600556775,-12,-2,2,-2,0,1,-9,-13
8799,8799,1503600556780,2,15,0,-5,-4,5,1,-4
8800,8800,1503600556794,3,5,1,2,0,-3,1,4
8801,8801,1503600556802,2,19,10,2,-3,-5,-4,-5
8802,8802,1503600556809,0,4,-1,-2,2,9,4,6
8803,8803,1503600556824,-24,-28,-11,-5,-2,4,2,3
8804,8804,1503600556831,7,19,7,1,0,-4,-2,1
8805,8805,1503600556843,8,-15,-7,-4,-1,-4,-1,-6
8806,8806,1503600556854,-8,-11,-7,-4,-6,-4,-2,10
8807,8807,1503600556862,-1,7,0,0,4,0,-5,-10
8808,8808,1503600556869,5,8,0,1,1,-2,0,0
8809,8809,1503600556884,-33,4,4,1,0,4,0,-3
8810,8810,1503600556891,8,-5,-4,-2,3,0,3,-1
8811,8811,1503600556899,2,-2,-2,0,0,-5,-2,4
8812,8812,1503600556913,4,-8,2,5,0,-3,-2,2
8813,8813,1503600556921,-29,-7,1,-2,1,3,-1,2
8814,8814,1503600556929,-7,-11,-3,-5,-1,-5,-3,-6
8815,8815,1503600556944,13,4,-1,1,1,-5,0,6
8816,8816,1503600556951,2,12,-1,-1,-3,0,2,-1
8817,8817,1503600556959,11,3,-1,0,-2,-2,0,-14
8818,8818,1503600556975,12,-1,-2,-1,-1,3,-1,-3
8819,8819,1503600556982,17,-6,-4,1,3,0,1,-4
8820,8820,1503600556989,-17,-9,0,-2,-1,-1,-3,-1
8821,8821,1503600557004,18,-2,-1,-2,-2,-3,0,6
8822,8822,1503600557012,-13,-8,-3,-4,-1,-4,-2,-1
8823,8823,1503600557019,-5,7,5,7,-2,-1,-1,2
8824,8824,1503600557033,-10,-14,2,0,0,-1,-1,-7
8825,8825,1503600557042,1,10,-1,-3,-4,-2,0,1
8826,8826,1503600557049,20,4,-3,2,3,4,0,-19
8827,8827,1503600557064,-14,-10,-4,-5,1,0,4,0
8828,8828,1503600557071,8,29,7,-3,-5,0,-7,-7
8829,8829,1503600557082,-6,2,4,0,-1,0,-3,-4
8830,8830,1503600557093,5,8,0,1,1,-3,1,0
8831,8831,1503600557101,-2,-16,-6,-1,-3,1,0,3
8832,8832,1503600557109,-14,-8,-3,1,3,0,0,9
8833,8833,1503600557124,2,8,-4,-1,1,1,-2,3
8834,8834,1503600557131,-5,-12,-5,-9,0,1,-1,5
8835,8835,1503600557144,-2,-16,-4,-1,-2,-1,-1,-1
8836,8836,1503600557153,-4,-4,0,0,1,-4,0,9
8837,8837,1503600557161,-9,-10,-5,-4,-3,0,0,-6
8838,8838,1503600557169,-9,-5,-2,-3,-2,-1,2,1
8839,8839,1503600557184,6,12,6,2,5,3,2,5
8840,8840,1503600557191,2,0,-3,1,-6,-4,-7,0
8841,8841,1503600557200,-6,12,3,-1,-1,-8,-6,-11
8842,8842,1503600557215,7,2,-2,1,-1,1,-1,-5
8843,8843,1503600557221,21,-8,0,-2,-7,-3,-1,7
8844,8844,1503600557229,6,16,5,0,-1,-2,0,-2
8845,8845,1503600557244,-1,17,3,1,0,-1,-2,2
8846,8846,1503600557253,-10,-10,-7,-1,-3,2,-1,-11
8847,8847,1503600557262,9,11,3,1,-2,2,1,-6
8848,8848,1503600557273,-10,-5,-1,-1,1,-2,-4,5
8849,8849,1503600557282,-1,-15,-6,-2,-2,-3,1,5
8850,8850,1503600557289,-2,3,4,2,1,2,1,2
8851,8851,1503600557304,-1,-2,-2,0,-2,-4,-4,4
8852,8852,1503600557311,-8,-9,-2,-4,2,1,-3,-2
8853,8853,1503600557312,10,-13,-7,8,-1,-1,1,12
8854,8854,1503600557320,-3,-11,-4,-4,-1,-2,-1,7
8855,8855,1503600557333,-1,-8,-1,-6,-4,-3,2,-2
8856,8856,1503600557343,-4,-1,-2,1,6,6,1,-1
8857,8857,1503600557349,-2,2,-1,-1,1,3,-4,2
8858,8858,1503600557364,0,8,2,-1,-3,-1,2,-5
8859,8859,1503600557371,4,5,1,-2,-4,-3,-3,-7
8860,8860,1503600557387,8,-15,-8,-3,-2,-1,-4,-2
8861,8861,1503600557393,3,17,1,-1,-2,-3,0,-2
8862,8862,1503600557401,9,-8,-5,-2,4,2,3,-8
8863,8863,1503600557410,-1,-15,-4,-4,-1,-2,-2,-2
8864,8864,1503600557424,-7,2,-2,1,4,-3,-1,3
8865,8865,1503600557431,-4,-4,0,-5,1,0,0,-4
8866,8866,1503600557439,-4,2,1,1,-1,-1,-4,3
8867,8867,1503600557453,7,-1,2,-1,-1,2,2,3
8868,8868,1503600557461,5,5,3,-1,-5,-1,-1,9
8869,8869,1503600557469,5,8,1,1,0,-1,4,0
8870,8870,1503600557484,-3,-16,-5,-3,-3,-3,-4,-8
8871,8871,1503600557485,-7,6,2,2,-1,0,1,-4
8872,8872,1503600557491,-12,-12,-4,1,2,-1,-2,-4
8873,8873,1503600557499,-6,4,-2,-3,-3,-5,0,-1
8874,8874,1503600557516,-2,-2,0,1,-2,7,0,5
8875,8875,1503600557521,-5,-1,3,-2,2,3,-1,-5
8876,8876,1503600557528,-14,1,-1,1,-3,-6,-3,-5
8877,8877,1503600557529,4,-7,-5,-10,-1,-4,-5,-5
8878,8878,1503600557544,4,-15,-4,-4,0,-2,-2,-8
8879,8879,1503600557551,-7,12,5,0,-6,-3,-1,-3
8880,8880,1503600557559,-2,-4,-2,0,2,0,0,-5
8881,8881,1503600557574,-14,-18,-6,-2,0,-3,-2,2
8882,8882,1503600557589,-5,13,2,2,-3,-1,4,-3
8883,8883,1503600557604,-15,4,0,-2,-2,2,0,5
8884,8884,1503600557622,0,16,6,-1,0,-4,1,-1
8885,8885,1503600557634,8,1,-4,1,2,1,2,1
8886,8886,1503600557642,12,-5,0,3,-1,-1,0,4
8887,8887,1503600557649,-4,-12,-3,2,0,-1,1,3
8888,8888,1503600557664,-10,-9,-6,-4,-3,-4,-2,-5
8889,8889,1503600557671,-7,-7,-5,-4,-3,-3,-3,-5
8890,8890,1503600557679,6,4,-2,0,-1,5,-1,1
8891,8891,1503600557694,-2,-7,-1,-2,-1,2,-2,-3
8892,8892,1503600557702,2,-3,1,-1,-2,3,0,-5
8893,8893,1503600557708,-18,-24,-8,-3,-3,-3,-1,2
8894,8894,1503600557709,11,25,4,-1,-1,-2,1,6
8895,8895,1503600557724,-8,-5,-1,-4,-4,-6,-5,-5
8896,8896,1503600557731,-2,-20,-8,-1,1,-2,-4,-5
8897,8897,1503600557747,3,-1,-2,-2,-4,-3,-2,0
8898,8898,1503600557755,-2,3,2,0,1,2,-5,-5
8899,8899,1503600557762,7,-2,0,-1,1,-1,1,2
8900,8900,1503600557776,-10,8,-2,-2,-1,1,0,2
8901,8901,1503600557777,7,1,0,0,-3,-1,2,1
8902,8902,1503600557784,-12,-16,-5,-2,-1,-3,-2,-6
8903,8903,1503600557791,9,3,2,0,0,5,2,1
8904,8904,1503600557806,-5,17,1,-1,-2,0,1,2
8905,8905,1503600557814,-1,6,7,2,1,-1,0,4
8906,8906,1503600557822,-6,0,0,0,3,3,0,1
8907,8907,1503600557835,0,3,0,2,-1,-4,-6,-16
8908,8908,1503600557847,1,7,2,4,1,-4,-4,0
8909,8909,1503600557851,-7,8,-1,0,-5,-2,-2,3
8910,8910,1503600557866,7,0,-4,-2,-2,1,1,1
8911,8911,1503600557874,-6,2,4,-3,2,1,1,1
8912,8912,1503600557882,-4,-6,0,1,-2,-2,-3,0
8913,8913,1503600557896,-28,-13,-5,-4,-1,-2,3,-1
8914,8914,1503600557904,-1,14,2,0,-3,-5,-4,1
8915,8915,1503600557913,4,0,-1,1,-1,4,2,2
8916,8916,1503600557926,-3,-7,-3,6,-4,0,0,4
8917,8917,1503600557934,6,0,-1,-4,2,1,-5,-4
8918,8918,1503600557942,-7,-7,-6,-8,-3,3,-2,4
8919,8919,1503600557956,-5,-8,0,2,5,1,1,-1
8920,8920,1503600557964,1,-2,3,-1,-2,-6,-4,1
8921,8921,1503600557971,-2,14,1,-3,-3,-1,1,4
8922,8922,1503600557986,20,4,0,-1,0,-1,3,0
8923,8923,1503600557994,4,-10,-2,0,1,-2,2,3
8924,8924,1503600558009,-2,-3,0,-2,1,-4,-3,-7
8925,8925,1503600558019,1,1,-2,8,-5,-4,-4,-3
8926,8926,1503600558024,-2,-10,-2,-4,1,4,0,-3
8927,8927,1503600558031,14,-9,-4,-3,-3,-5,0,2
8928,8928,1503600558048,-8,-2,-2,1,3,1,1,-3
8929,8929,1503600558054,-3,-5,-5,-3,-4,0,-2,-3
8930,8930,1503600558062,-7,-6,-4,-2,4,10,-3,2
8931,8931,1503600558075,1,-9,-4,-4,-3,-3,-2,7
8932,8932,1503600558084,11,11,1,-1,-2,-4,-1,0
8933,8933,1503600558091,-30,2,-2,0,2,0,-4,-4
8934,8934,1503600558106,1,4,11,2,-2,-3,0,1
8935,8935,1503600558115,3,14,1,1,0,1,0,0
8936,8936,1503600558116,16,-7,0,-2,-4,-3,-3,1
8937,8937,1503600558122,-8,-4,-5,-13,0,-1,-2,-5
8938,8938,1503600558135,-43,-18,-2,-4,0,0,2,-4
8939,8939,1503600558144,15,-6,-1,2,-1,1,4,-15
8940,8940,1503600558153,13,4,-3,-1,-2,-4,-1,-3
8941,8941,1503600558167,-5,-23,-9,-1,-1,-3,1,3
8942,8942,1503600558174,3,0,-2,-1,-2,2,-3,-4
8943,8943,1503600558184,-6,-6,-3,-1,-1,0,-1,3
8944,8944,1503600558196,13,10,0,0,1,1,-1,0
8945,8945,1503600558204,-17,-2,-3,0,-4,-1,1,-6
8946,8946,1503600558211,-2,15,7,2,4,2,0,-2
8947,8947,1503600558228,5,5,0,-3,2,-1,-4,-6
8948,8948,1503600558234,9,15,3,-3,0,-1,2,7
8949,8949,1503600558242,6,-7,-5,-3,-2,-4,-4,5
8950,8950,1503600558258,8,-2,-2,1,1,4,3,4
8951,8951,1503600558264,-2,3,-1,2,-3,0,-5,7
8952,8952,1503600558271,-8,-6,0,1,-2,0,1,-3
8953,8953,1503600558294,0,2,2,-3,-4,-2,2,8
8954,8954,1503600558302,-1,1,-2,-8,-4,-7,0,-4
8955,8955,1503600558316,6,1,-2,-3,1,-4,-2,-1
8956,8956,1503600558324,-23,10,5,2,0,0,0,-4
8957,8957,1503600558331,3,11,4,1,0,0,0,-2
8958,8958,1503600558349,8,18,2,1,-2,-1,1,0
8959,8959,1503600558354,-8,-10,-2,1,-4,-1,-5,-7
8960,8960,1503600558362,5,0,-6,1,2,2,4,7
8961,8961,1503600558375,19,5,2,0,-1,-2,-3,-4
8962,8962,1503600558384,4,3,2,-1,0,-2,1,-1
8963,8963,1503600558391,-6,-7,-4,-2,-2,2,-5,-6
8964,8964,1503600558406,-4,-8,1,0,-2,-1,-3,-4
8965,8965,1503600558416,-23,-3,2,6,1,-1,-1,-1
8966,8966,1503600558423,1,3,3,-1,-1,2,-2,5
8967,8967,1503600558435,0,-7,-3,-3,0,1,1,0
8968,8968,1503600558444,-7,1,0,4,0,-2,-1,-2
8969,8969,1503600558452,10,-2,3,1,0,1,-2,-4
8970,8970,1503600558466,1,-5,-2,-3,-2,-1,-1,-1
8971,8971,1503600558474,-11,6,-3,5,-5,0,0,0
8972,8972,1503600558483,-4,-18,-5,-4,-7,-5,-3,-4
8973,8973,1503600558496,0,-6,-7,-7,-1,-2,0,2
8974,8974,1503600558503,-5,15,5,0,2,3,-2,0
8975,8975,1503600558504,0,3,5,2,-2,-2,-2,-2
8976,8976,1503600558519,1,-16,-11,-8,0,-3,-2,-2
8977,8977,1503600558526,-2,-4,-2,-1,3,2,1,2
8978,8978,1503600558534,-4,-10,-2,-3,3,-2,2,-5
8979,8979,1503600558544,2,18,4,2,-4,-2,-4,-5
8980,8980,1503600558556,0,30,0,-2,0,-3,0,1
8981,8981,1503600558564,3,-1,4,9,0,0,-2,1
8982,8982,1503600558571,2,-7,-3,-7,0,1,0,5
8983,8983,1503600558587,-3,-9,-6,-1,1,1,3,-1
8984,8984,1503600558588,-6,1,-3,-6,0,0,0,1
8985,8985,1503600558594,5,-3,3,2,-2,-5,-5,-5
8986,8986,1503600558602,5,-7,-1,-1,-1,0,1,1
8987,8987,1503600558617,19,14,4,1,1,0,4,1
8988,8988,1503600558627,-3,-5,5,1,1,0,-3,1
8989,8989,1503600558631,-6,-6,0,1,0,-1,-3,-9
8990,8990,1503600558646,12,-12,-10,-3,-2,-1,-1,-5
8991,8991,1503600558654,1,4,4,2,0,-2,-2,4
8992,8992,1503600558662,-9,-14,-8,-3,3,2,0,2
8993,8993,1503600558675,-8,0,-1,-3,-6,-4,-2,-11
8994,8994,1503600558684,-4,14,4,0,0,0,-1,-3
8995,8995,1503600558698,-9,6,3,3,-2,-1,2,3
8996,8996,1503600558706,-1,16,1,-1,0,-1,-2,-7
8997,8997,1503600558714,4,6,1,-3,1,0,-1,7
8998,8998,1503600558729,-15,9,1,0,-2,0,-1,-3
8999,8999,1503600558735,-5,-13,1,0,-5,1,1,-1
9000,9000,1503600558744,-16,-21,-3,0,-1,-2,0,-1
9001,9001,1503600558759,-3,-11,-1,2,2,-3,-3,-2
9002,9002,1503600558766,0,-10,-2,-2,-2,0,0,2
9003,9003,1503600558774,6,3,0,-1,0,0,-3,-2
9004,9004,1503600558789,-2,13,-2,-3,-1,-2,-2,2
9005,9005,1503600558795,-11,-2,-4,-1,3,-3,-2,-1
9006,9006,1503600558804,4,0,1,-1,-1,-7,-3,-3
9007,9007,1503600558820,4,-6,-4,-1,-3,2,-1,-5
9008,9008,1503600558826,17,1,-1,1,1,0,1,1
9009,9009,1503600558833,1,7,1,3,2,2,-1,-1
9010,9010,1503600558853,7,17,2,0,-2,-2,1,6
9011,9011,1503600558856,-7,0,-2,-2,3,-5,-2,3
9012,9012,1503600558864,1,-7,-2,-2,-6,-13,-7,-4
9013,9013,1503600558878,-16,-8,-3,-2,-4,0,-3,-4
9014,9014,1503600558886,0,-6,-3,-3,4,1,0,-1
9015,9015,1503600558901,13,-2,0,-2,-4,-2,-3,-14
9016,9016,1503600558908,-1,4,2,8,-1,8,4,2
9017,9017,1503600558924,6,10,1,1,1,2,3,4
9018,9018,1503600558925,4,7,5,-2,-1,0,3,2
9019,9019,1503600558938,-1,5,4,-1,-1,-5,0,5
9020,9020,1503600558946,-3,-3,-1,0,7,-2,4,2
9021,9021,1503600558956,-5,-19,-7,-4,-10,-23,-8,-3
9022,9022,1503600558969,-1,1,-6,-1,8,10,-4,-5
9023,9023,1503600558975,2,2,3,7,0,0,0,1
9024,9024,1503600558986,-3,1,1,4,-1,-22,-7,-3
9025,9025,1503600558987,1,-24,-9,-7,2,-8,-5,-5
9026,9026,1503600558998,-3,-6,-4,-4,-3,-8,2,3
9027,9027,1503600559006,2,12,4,0,4,6,2,-2
9028,9028,1503600559014,1,-3,-5,-4,1,6,0,0
9029,9029,1503600559029,2,0,-5,-6,-9,-3,-1,-2
9030,9030,1503600559035,-3,3,1,-2,-7,9,2,3
9031,9031,1503600559043,-3,-12,-5,-4,-7,-3,-5,-2
9032,9032,1503600559058,0,-12,4,2,9,2,0,0
9033,9033,1503600559066,1,23,5,0,-4,1,0,3
9034,9034,1503600559073,0,13,4,-6,-3,3,-3,-3
9035,9035,1503600559091,3,9,4,3,-2,-1,4,3
9036,9036,1503600559096,0,-9,-6,-3,-3,3,4,3
9037,9037,1503600559104,-5,-10,-2,-12,-2,0,-3,-1
9038,9038,1503600559120,-4,-10,-10,-2,0,-5,-1,0
9039,9039,1503600559127,-9,4,-3,-1,-2,1,-2,-1
9040,9040,1503600559133,-1,-9,-7,-2,10,3,-2,-6
9041,9041,1503600559156,-3,2,-2,1,-1,0,1,5
9042,9042,1503600559164,1,6,6,3,3,4,1,-1
9043,9043,1503600559178,0,15,6,1,2,-3,-2,-17
9044,9044,1503600559188,5,-6,-2,2,-1,0,4,-1
9045,9045,1503600559194,12,12,6,-1,-3,7,0,7
9046,9046,1503600559209,0,-16,-3,-10,-7,-1,-8,-2
9047,9047,1503600559215,0,-11,1,2,-4,5,0,0
9048,9048,1503600559224,4,-15,-5,-1,-5,-3,0,1
9049,9049,1503600559239,14,4,2,2,0,1,1,6
9050,9050,1503600559246,-2,6,3,3,3,4,2,-7
9051,9051,1503600559256,-4,-4,-1,1,-4,-3,0,1
9052,9052,1503600559269,-5,-2,-2,1,1,-5,-1,3
9053,9053,1503600559275,0,5,2,-1,1,2,-1,3
9054,9054,1503600559284,-1,6,-1,2,-3,-2,0,6
9055,9055,1503600559298,-9,1,3,10,1,7,-1,0
9056,9056,1503600559306,3,27,7,5,5,5,2,1
9057,9057,1503600559314,-5,-4,-6,-10,-14,-9,-2,-2
9058,9058,1503600559329,-1,-1,-5,0,1,4,1,1
9059,9059,1503600559335,1,-3,-2,-1,2,-2,-2,-5
9060,9060,1503600559344,-6,-24,-4,-4,-5,-8,-2,-10
9061,9061,1503600559360,-4,-11,-7,-3,0,-1,-2,-1
9062,9062,1503600559366,-1,-1,1,1,5,0,-2,-1
9063,9063,1503600559373,3,-4,-6,-1,0,-3,0,-6
9064,9064,1503600559389,-1,-7,-3,0,2,-3,-4,1
9065,9065,1503600559396,-9,-10,-9,1,-1,-3,-2,1
9066,9066,1503600559403,-2,1,2,-3,-6,-3,-3,-3
9067,9067,1503600559422,-2,4,1,-5,-1,7,-1,-1
9068,9068,1503600559426,-3,-1,-5,-3,2,4,2,-2
9069,9069,1503600559427,3,-4,-1,1,-1,-3,-1,1
9070,9070,1503600559434,-1,17,5,1,5,-1,-3,-1
9071,9071,1503600559448,0,2,1,-2,-4,-2,-2,2
9072,9072,1503600559456,3,15,4,2,-1,-3,2,4
9073,9073,1503600559464,-1,-4,-4,2,1,-3,1,-2
9074,9074,1503600559478,-8,-16,-3,-2,3,4,1,0
9075,9075,1503600559490,2,2,2,1,-2,1,-1,2
9076,9076,1503600559494,6,-10,1,-3,-1,-3,-1,3
9077,9077,1503600559509,6,8,6,2,-6,-6,-3,-2
9078,9078,1503600559515,-4,-8,-3,-3,-5,-6,1,0
9079,9079,1503600559524,-7,12,3,-1,0,0,-2,-4
9080,9080,1503600559539,-2,-10,-4,-2,-2,0,-1,1
9081,9081,1503600559546,-1,-6,-13,-3,-2,-4,-2,-3
9082,9082,1503600559547,-4,10,20,6,3,0,0,0
9083,9083,1503600559555,-2,6,1,0,0,0,-1,3
9084,9084,1503600559569,-3,5,-9,-3,0,1,1,-2
9085,9085,1503600559575,-1,9,7,3,2,1,-3,-1
9086,9086,1503600559583,8,-2,0,-4,-4,-10,-2,-4
9087,9087,1503600559584,-13,-14,-8,-3,-5,0,-5,0
9088,9088,1503600559598,19,8,-6,-2,10,3,4,4
9089,9089,1503600559606,-4,6,5,1,0,0,2,5
9090,9090,1503600559622,-11,-15,-5,-2,-3,-6,-3,-6
9091,9091,1503600559629,17,1,-1,-1,-3,-1,2,-9
9092,9092,1503600559636,-1,1,-4,-3,-3,-4,-2,4
9093,9093,1503600559651,-5,-11,-8,-1,3,0,-3,1
9094,9094,1503600559660,-6,-3,1,0,-7,-5,-5,-5
9095,9095,1503600559666,1,8,2,2,12,11,3,-2
9096,9096,1503600559680,3,5,3,-2,-5,-12,-2,4
9097,9097,1503600559689,-3,-10,-5,-5,4,29,4,1
9098,9098,1503600559698,-18,-1,0,-3,-14,-3,3,-8
9099,9099,1503600559711,-2,-3,-7,-5,-9,-20,0,-3
9100,9100,1503600559718,5,-13,0,1,1,2,-5,-10
9101,9101,1503600559726,-3,-8,-8,-6,-8,-11,-5,2
9102,9102,1503600559740,9,-20,-7,0,4,-2,0,8
9103,9103,1503600559749,-4,13,6,7,-2,-9,-3,-4
9104,9104,1503600559756,5,10,-2,0,2,0,0,-1
9105,9105,1503600559771,9,-3,-4,-3,0,7,4,-3
9106,9106,1503600559778,4,5,3,-2,0,-4,0,5
9107,9107,1503600559786,-10,-11,-5,-4,1,-4,-11,-3
9108,9108,1503600559801,3,18,5,-2,0,10,0,-4
9109,9109,1503600559808,10,-12,-1,4,1,-1,1,2
9110,9110,1503600559815,1,2,0,1,3,0,-5,0
9111,9111,1503600559833,5,-5,0,-4,-3,-22,4,3
9112,9112,1503600559838,-4,-4,-2,-3,0,3,-1,-7
9113,9113,1503600559846,-5,-7,-3,0,-6,2,-6,3
9114,9114,1503600559861,-1,17,5,4,1,-6,-1,0
9115,9115,1503600559869,8,0,4,-1,-4,-4,-1,1
9116,9116,1503600559875,-2,1,-1,1,2,5,1,0
9117,9117,1503600559891,-8,8,2,-1,2,2,2,1
9118,9118,1503600559901,10,-4,-5,-2,-3,1,4,-4
9119,9119,1503600559906,21,0,-3,-1,-10,9,0,0
9120,9120,1503600559926,-24,-16,-5,-2,-4,-12,-4,-1
9121,9121,1503600559929,-27,-5,-3,-1,13,14,-2,-8
9122,9122,1503600559944,6,6,1,-2,1,10,2,-1
9123,9123,1503600559951,-23,-6,-4,0,-4,2,-1,4
9124,9124,1503600559960,-14,-10,-2,-1,-3,2,1,1
9125,9125,1503600559966,1,-9,-5,-3,-5,-10,0,4
9126,9126,1503600559982,2,-17,-5,-2,3,-5,-2,3
9127,9127,1503600559991,17,13,12,5,2,0,-2,-2
9128,9128,1503600560004,16,0,2,-2,-2,5,-1,1
9129,9129,1503600560011,10,-13,-2,1,-3,-6,5,4
9130,9130,1503600560019,-3,9,11,6,5,3,-8,-45
9131,9131,1503600560028,-4,-11,-5,-12,-5,1,-5,0
9132,9132,1503600560041,-9,-2,-2,7,-4,-14,-3,-26
9133,9133,1503600560042,-17,1,0,0,1,2,6,19
9134,9134,1503600560048,-7,5,-5,-4,0,5,-3,-6
9135,9135,1503600560064,-7,-4,-5,-2,-4,0,1,10
9136,9136,1503600560071,2,-5,-3,2,0,-8,-6,1
9137,9137,1503600560079,-7,14,1,1,4,0,-6,-9
9138,9138,1503600560086,2,34,11,0,-1,-7,3,-6
9139,9139,1503600560102,24,-11,-2,-1,-5,-6,7,1
9140,9140,1503600560108,-3,17,-2,-2,1,3,-5,0
9141,9141,1503600560125,-8,-11,-4,-5,-5,-13,1,2
9142,9142,1503600560131,-9,-6,0,3,-6,-7,-5,12
9143,9143,1503600560140,-2,-7,-4,-1,-10,-1,1,6
9144,9144,1503600560146,-3,-14,-9,-7,2,3,-4,-2
9145,9145,1503600560162,18,0,-4,-5,-1,-5,-3,15
9146,9146,1503600560169,-40,-5,1,3,-1,-2,1,-7
9147,9147,1503600560184,-6,9,9,5,3,0,0,-12
9148,9148,1503600560193,21,-4,-6,-1,-2,-7,-2,-4
9149,9149,1503600560206,4,19,-1,-4,0,5,-5,9
9150,9150,1503600560207,-8,-6,0,-1,-3,-9,7,-1
9151,9151,1503600560222,14,-4,-1,2,7,18,0,-2
9152,9152,1503600560229,8,-7,-3,-2,-8,2,0,-3
9153,9153,1503600560244,-7,-3,-8,2,0,-3,-2,-7
9154,9154,1503600560251,1,-15,4,0,0,3,1,19
9155,9155,1503600560267,3,-2,-5,1,-3,-6,-8,-15
9156,9156,1503600560282,-8,13,4,2,0,-6,-8,3
9157,9157,1503600560289,-13,4,-1,0,0,-13,1,-9
9158,9158,1503600560311,-10,0,-3,-2,1,2,-2,5
9159,9159,1503600560312,18,0,0,3,9,4,4,-2
9160,9160,1503600560320,8,-8,-6,0,-3,-9,1,-4
9161,9161,1503600560327,9,17,12,7,9,8,3,0
9162,9162,1503600560342,-9,-11,-10,-4,-5,0,-4,-1
9163,9163,1503600560349,-4,-14,-5,-2,0,5,-1,-3
9164,9164,1503600560364,-47,-9,-2,-3,-1,1,-2,-18
9165,9165,1503600560371,-7,-1,-3,-2,-2,-1,-2,-12
9166,9166,1503600560380,3,11,4,0,-5,4,-2,1
9167,9167,1503600560386,11,-17,-6,1,-2,1,4,-17
9168,9168,1503600560402,3,-9,-10,-4,4,6,0,6
9169,9169,1503600560408,0,32,5,-1,0,-5,-3,7
9170,9170,1503600560427,17,8,3,0,0,-10,-3,-7
9171,9171,1503600560431,19,-5,-6,-9,1,2,-4,0
9172,9172,1503600560440,5,-1,0,-3,-4,-1,5,3
9173,9173,1503600560446,-9,-17,-12,-4,-4,-2,-2,4
9174,9174,1503600560463,8,-12,-1,2,0,-4,-1,-3
9175,9175,1503600560469,4,12,8,4,-1,3,-6,-9
9176,9176,1503600560484,8,5,-7,-5,-5,0,5,-5
9177,9177,1503600560493,0,-7,-4,0,-2,-12,-2,9
9178,9178,1503600560500,-14,2,3,1,0,1,-1,-4
9179,9179,1503600560506,-3,-10,-9,-5,-3,5,3,-2
9180,9180,1503600560522,-2,6,2,0,0,-2,4,6
9181,9181,1503600560529,-11,-15,-4,1,-1,7,-2,5
9182,9182,1503600560544,4,9,4,-1,-4,-6,-5,-1
9183,9183,1503600560551,7,21,9,1,3,0,-2,-6
9184,9184,1503600560563,0,-4,9,1,3,-4,2,-1
9185,9185,1503600560574,-2,2,5,2,0,1,1,4
9186,9186,1503600560582,17,-14,-13,-4,2,8,3,-2
9187,9187,1503600560590,-13,11,-2,0,-2,1,4,-1
9188,9188,1503600560604,4,-10,-7,0,1,-9,-6,-8
9189,9189,1503600560611,-30,-9,-10,-7,-12,-3,-8,-8
9190,9190,1503600560621,-11,19,5,-1,1,1,-2,15
9191,9191,1503600560634,12,19,7,-7,5,6,1,3
9192,9192,1503600560642,-1,-5,-2,-1,-2,-2,-2,-13
9193,9193,1503600560648,15,-12,5,1,2,-6,1,-9
9194,9194,1503600560665,12,20,10,2,3,5,2,5
9195,9195,1503600560672,-5,-10,-4,0,2,3,-2,-4
9196,9196,1503600560680,0,-4,0,0,-9,-3,-1,-1
9197,9197,1503600560696,8,16,2,1,0,-2,-2,2
9198,9198,1503600560702,7,8,-3,-3,4,-6,-1,-1
9199,9199,1503600560713,-5,30,6,-10,-5,-6,-5,8
9200,9200,1503600560724,-2,-12,-8,-3,-2,0,2,8
9201,9201,1503600560731,1,-14,-5,0,2,0,0,-5
9202,9202,1503600560739,-9,4,-4,0,1,1,1,4
9203,9203,1503600560753,-5,-2,-6,-2,-1,1,4,-1
9204,9204,1503600560754,-2,-8,-4,2,1,0,1,-3
9205,9205,1503600560763,2,-14,-4,2,-1,-1,-1,-2
9206,9206,1503600560769,4,10,1,4,2,2,0,-12
9207,9207,1503600560784,0,3,2,0,0,0,1,2
9208,9208,1503600560791,6,-5,-1,3,-1,-2,-5,7
9209,9209,1503600560801,-10,-5,4,-1,0,1,-6,-6
9210,9210,1503600560814,5,-3,3,14,7,20,9,2
9211,9211,1503600560822,8,1,1,0,-1,0,0,-4
9212,9212,1503600560830,2,-6,-9,-7,-6,-8,-3,8
9213,9213,1503600560844,-1,-7,-3,0,2,-7,-3,0
9214,9214,1503600560851,0,4,3,1,-3,-2,-2,-1
9215,9215,1503600560860,-38,-10,-5,-2,-2,-6,-1,-9
9216,9216,1503600560874,-21,2,2,-3,-7,-11,-3,0
9217,9217,1503600560881,14,4,3,1,5,7,3,2
9218,9218,1503600560888,0,-8,-5,-3,-3,-5,-5,-6
9219,9219,1503600560906,5,-6,-2,-1,0,4,0,8
9220,9220,1503600560911,3,10,5,0,2,4,1,1
9221,9221,1503600560920,0,15,-3,4,-6,-4,-5,8
9222,9222,1503600560934,4,-23,-5,-3,0,-2,-2,-3
9223,9223,1503600560941,-14,2,3,-3,-3,-1,-3,-10
9224,9224,1503600560948,1,5,-1,1,-2,-2,3,7
9225,9225,1503600560965,3,-5,-1,-1,-3,3,-2,-3
9226,9226,1503600560971,4,-9,-4,-1,0,-5,1,0
9227,9227,1503600560979,-1,-1,0,-3,1,-1,3,-8
9228,9228,1503600560994,2,27,4,0,-4,-3,1,1
9229,9229,1503600561002,-13,4,9,3,-1,-3,-3,-4
9230,9230,1503600561009,-17,-9,-2,-5,-2,1,0,9
9231,9231,1503600561024,-1,-6,-7,-5,-5,3,2,2
9232,9232,1503600561031,-4,-7,-1,-1,6,-2,0,5
9233,9233,1503600561041,4,-12,1,-2,-2,-3,1,-6
9234,9234,1503600561054,0,-1,-6,0,1,-3,-9,-7
9235,9235,1503600561061,10,4,-6,-3,-5,-4,-2,13
9236,9236,1503600561069,13,-1,-4,1,0,6,1,2
9237,9237,1503600561085,0,14,0,-2,-1,-2,-3,-5
9238,9238,1503600561092,-27,-17,-5,-2,-3,5,-3,-1
9239,9239,1503600561107,10,4,-6,-1,3,1,1,1
9240,9240,1503600561114,13,-2,4,-1,2,-5,-3,-5
9241,9241,1503600561122,1,3,4,0,-7,0,0,-6
9242,9242,1503600561128,-1,0,0,-3,-1,3,-2,-3
9243,9243,1503600561144,3,-11,-2,0,1,-1,2,2
9244,9244,1503600561151,-6,1,2,0,-1,-5,1,-5
9245,9245,1503600561159,0,-13,0,-1,2,0,-3,-3
9246,9246,1503600561174,12,-17,-3,-3,-3,0,0,1
9247,9247,1503600561181,12,4,-1,-1,-4,-4,-2,-13
9248,9248,1503600561189,3,35,18,6,-11,0,3,-5
9249,9249,1503600561206,6,0,2,1,8,5,0,1
9250,9250,1503600561211,-2,1,-2,9,2,-3,-5,-2
9251,9251,1503600561219,-18,-4,-6,-1,-3,1,2,-1
10047,10047,1503600569056,0,-7,4,2,-1,-3,0,-2
10048,10048,1503600569063,1,4,1,-1,-2,-1,1,-2
10049,10049,1503600569070,0,8,5,1,5,4,-1,1
10050,10050,1503600569071,0,-6,3,2,-1,1,0,0
10051,10051,1503600569088,-1,-9,-1,-2,-5,-4,0,-1
10052,10052,1503600569094,-1,7,-2,-1,-2,2,-5,-2
10053,10053,1503600569095,-4,7,-4,-5,-2,-3,1,-1
10054,10054,1503600569101,0,4,-3,1,0,1,0,3
10055,10055,1503600569116,-1,1,-3,0,-1,0,0,-2
10056,10056,1503600569131,1,2,1,-1,3,-1,-3,-3
10057,10057,1503600569132,-1,-10,-4,-3,-3,-5,1,-2
10058,10058,1503600569145,-7,-6,2,0,1,-1,-2,-3
10059,10059,1503600569155,-2,-12,-3,0,-3,-1,-3,-6
10060,10060,1503600569161,1,-4,-7,-3,-3,-5,0,5
10061,10061,1503600569183,-1,10,0,0,-2,-2,-2,0
10062,10062,1503600569191,-2,-4,-1,1,-3,-1,-4,0
10063,10063,1503600569205,4,5,1,1,1,-2,-2,0
10064,10064,1503600569213,2,-1,-3,0,2,-1,1,-1
10065,10065,1503600569222,-5,-10,-7,-4,-2,-2,0,-4
10066,10066,1503600569236,-4,1,-1,-2,0,2,-1,-2
10067,10067,1503600569242,5,14,2,-1,-3,0,-1,2
10068,10068,1503600569251,0,5,-1,-3,0,-2,-1,-1
10069,10069,1503600569265,3,0,-1,-1,-3,-6,-1,1
10070,10070,1503600569273,1,-3,2,2,1,-2,0,2
10071,10071,1503600569281,-1,4,2,0,0,1,0,0
10072,10072,1503600569297,-2,-8,-2,-2,-1,-2,-1,-1
10073,10073,1503600569302,-2,-8,-2,1,2,1,-4,-3
10074,10074,1503600569310,-1,0,3,1,0,1,-2,-1
10075,10075,1503600569325,-1,1,-1,-2,-1,-3,0,0
10076,10076,1503600569333,-5,5,-3,0,-7,-1,1,-1
10077,10077,1503600569341,-4,-7,1,0,-2,1,-1,-6
10078,10078,1503600569356,-1,-3,-1,-1,3,0,1,1
10079,10079,1503600569365,2,-4,-5,-1,1,-1,-2,2
10080,10080,1503600569371,0,-4,-4,-1,-3,-3,0,-4
10081,10081,1503600569385,3,17,1,0,0,1,1,-1
10082,10082,1503600569393,-1,-3,-3,-1,1,-3,-1,-1
10083,10083,1503600569401,-4,1,-1,-1,1,2,0,-5
10084,10084,1503600569416,1,7,1,1,-1,-1,-1,2
10085,10085,1503600569424,0,0,0,-1,-1,-1,0,2
10086,10086,1503600569432,0,-1,-1,-1,-1,0,1,1
10087,10087,1503600569445,-2,-8,-3,-1,-2,-3,0,-2
10088,10088,1503600569453,1,4,-1,-1,-3,-1,-1,2
10089,10089,1503600569461,-4,-5,-3,-1,-1,-1,0,2
10090,10090,1503600569476,-2,-6,-1,0,0,0,-4,0
10091,10091,1503600569483,0,4,1,1,-1,2,0,-3
10092,10092,1503600569491,-6,-2,-3,-2,0,-1,0,-2
10093,10093,1503600569505,3,3,-1,-2,-2,-3,-1,0
10094,10094,1503600569513,5,10,5,-1,-2,-1,2,1
10095,10095,1503600569521,-1,12,8,2,3,0,0,0
10096,10096,1503600569536,-1,9,-1,0,2,1,-2,-4
10097,10097,1503600569542,0,-3,1,-2,-2,-1,-1,0
10098,10098,1503600569550,0,-1,-4,-2,0,-2,-1,-1
10099,10099,1503600569551,-2,-4,0,-1,0,-2,-5,-3
10100,10100,1503600569567,-1,-2,0,1,2,2,-1,0
10101,10101,1503600569573,3,0,-3,-2,-1,-2,-1,-1
10102,10102,1503600569581,-1,3,-5,-3,-3,-3,-2,-4
10103,10103,1503600569596,-6,12,6,0,-6,-2,-7,-5
10104,10104,1503600569602,-1,-7,-3,-2,-3,-1,0,1
10105,10105,1503600569610,0,-12,-5,-3,-2,-3,1,1
10106,10106,1503600569625,2,-7,-3,-1,-3,1,1,0
10107,10107,1503600569633,-2,-3,-2,-1,0,0,2,2
10108,10108,1503600569642,-2,-6,-4,-2,-1,0,-2,0
10109,10109,1503600569659,1,1,0,0,-1,0,3,1
10110,10110,1503600569666,-2,2,-2,-1,-2,-1,1,-3
10111,10111,1503600569671,-1,-18,-3,-1,5,1,-1,-3
10112,10112,1503600569685,3,3,-2,-2,-2,-2,2,5
10113,10113,1503600569693,-1,0,0,0,0,0,0,0
10114,10114,1503600569701,-1,-7,0,-1,1,1,-6,-2
10115,10115,1503600569716,1,2,-2,-1,-1,-1,0,0
10116,10116,1503600569726,-1,-1,2,-1,-2,-4,-1,-3
10117,10117,1503600569731,-3,-4,-4,-2,0,-1,-4,0
10118,10118,1503600569745,0,-6,-4,-1,-1,0,0,-1
10119,10119,1503600569753,1,1,0,-2,-5,-4,0,1
10120,10120,1503600569761,1,1,1,1,0,-1,0,-1
10121,10121,1503600569775,-3,1,-2,-1,-2,-3,3,3
10122,10122,1503600569783,-3,1,1,0,1,0,1,-1
10123,10123,1503600569793,-1,-6,-4,0,1,0,1,0
10124,10124,1503600569805,-5,-1,-2,-3,-1,-2,1,-3
10125,10125,1503600569813,0,5,4,1,-2,-1,-1,-7
10126,10126,1503600569820,5,5,1,0,-1,-1,1,2
10127,10127,1503600569836,0,4,-3,-2,-1,5,-2,-1
10128,10128,1503600569842,-2,5,2,-1,-2,-4,-3,2
10129,10129,1503600569850,2,0,0,-1,-4,-1,-3,-1
10130,10130,1503600569865,-2,-4,-1,-1,0,1,-1,-1
10131,10131,1503600569873,-3,22,1,-1,-1,0,-1,-4
10132,10132,1503600569887,-4,-7,3,0,-1,-2,-1,-3
10133,10133,1503600569896,1,-16,-5,0,2,2,0,3
10134,10134,1503600569902,-5,-4,-3,-1,0,0,-1,-3
10135,10135,1503600569918,-2,-4,-1,0,-3,-2,-5,1
10136,10136,1503600569928,0,-2,-3,-2,1,-1,-3,-1
10137,10137,1503600569933,-1,3,2,-2,1,-5,1,-4
10138,10138,1503600569947,-1,-2,0,1,0,0,1,-2
10139,10139,1503600569955,2,-4,0,-1,-3,-1,-4,1
10140,10140,1503600569964,-3,7,1,-2,0,2,-2,-4
10141,10141,1503600569978,2,7,0,-1,1,-1,-2,1
10142,10142,1503600569985,-1,7,-1,-2,-2,0,0,3
10143,10143,1503600569994,-5,-9,1,0,0,0,-1,-5
10144,10144,1503600570008,0,9,0,0,-2,-1,2,-1
10145,10145,1503600570016,-3,-3,0,-2,-1,-1,3,-4
10146,10146,1503600570022,1,-18,-2,0,1,0,-1,0
10147,10147,1503600570039,1,-5,-1,-1,-3,0,-1,-1
10148,10148,1503600570045,-2,-1,1,0,1,-2,-3,-2
10149,10149,1503600570053,-4,-3,0,1,1,-2,-1,-2
10150,10150,1503600570068,1,3,-5,-2,0,0,-1,1
10151,10151,1503600570075,2,0,-3,0,-1,-3,-1,1
10152,10152,1503600570083,-5,-7,-2,-1,-5,-2,-1,-3
10153,10153,1503600570099,-3,-2,-2,-1,0,-1,-2,0
10154,10154,1503600570105,-1,-4,-2,-2,-4,-1,-2,-3
10155,10155,1503600570113,-2,4,1,-1,3,2,-4,0
10156,10156,1503600570129,-5,-2,-1,0,-1,1,-1,-3
10157,10157,1503600570136,2,-3,0,2,0,0,0,2
10158,10158,1503600570142,3,10,7,1,-3,-2,-2,0
10159,10159,1503600570158,0,-3,0,-2,1,0,3,0
10160,10160,1503600570166,-2,-14,-3,-1,3,-1,-2,-1
10161,10161,1503600570173,-1,-2,4,14,13,1,-1,2
10162,10162,1503600570188,5,8,2,4,3,0,-2,3
10163,10163,1503600570201,0,-5,-2,7,7,1,-1,0
10164,10164,1503600570204,-2,-2,-2,-3,-3,0,-1,0
10165,10165,1503600570218,1,5,-1,-9,-6,0,0,2
10166,10166,1503600570225,-3,-2,-4,-3,-5,2,0,0
10167,10167,1503600570234,4,1,2,-2,-3,-1,2,-2
10168,10168,1503600570248,18,10,0,-5,-5,-3,0,1
10169,10169,1503600570255,-32,-14,-3,3,5,0,-1,-5
10170,10170,1503600570256,1,0,-3,-11,-8,-1,1,0
10171,10171,1503600570264,-9,-5,-2,-4,-5,-4,-2,-6
10172,10172,1503600570278,-22,-7,-2,3,2,0,-1,-3
10173,10173,1503600570285,-6,2,2,9,7,-1,3,-2
10174,10174,1503600570293,3,8,-1,2,0,0,-1,-2
10175,10175,1503600570307,0,7,-2,0,1,-4,-4,-8
10176,10176,1503600570315,2,-5,-1,8,-1,0,0,-4
10177,10177,1503600570323,-6,-6,-2,-7,-10,-1,-1,3
10178,10178,1503600570339,8,-1,-1,-4,-2,-1,-2,1
10179,10179,1503600570345,1,2,1,-8,-8,0,-1,-1
10180,10180,1503600570353,-4,-6,-3,-2,-8,-3,0,-1
10181,10181,1503600570368,0,-5,-5,-1,5,0,-1,1
10182,10182,1503600570376,-16,-6,-1,1,1,-1,-5,-3
10183,10183,1503600570383,-17,-5,-3,0,2,-1,-1,-1
10184,10184,1503600570399,-3,-1,-10,-10,-8,-4,-4,-2
10185,10185,1503600570413,4,-18,-3,0,-1,2,0,-3
10186,10186,1503600570415,6,-11,0,0,0,-3,-2,1
10187,10187,1503600570431,12,9,5,1,4,3,0,4
10188,10188,1503600570436,-8,-7,-7,-2,-3,-2,-1,-1
10189,10189,1503600570451,-9,-8,-1,-1,-5,-2,-1,2
10190,10190,1503600570458,10,1,0,7,4,4,1,1
10191,10191,1503600570466,2,-2,0,-3,-2,-5,-3,-3
10192,10192,1503600570473,16,9,5,0,0,4,0,-2
10193,10193,1503600570489,5,1,-4,2,-2,1,0,5
10194,10194,1503600570497,-9,-5,-2,-6,-6,-4,-2,0
10195,10195,1503600570513,-2,-3,-2,1,5,0,5,0
10196,10196,1503600570518,11,9,5,0,-3,-2,1,-3
10197,10197,1503600570526,2,-11,-3,2,2,0,0,0
10198,10198,1503600570534,7,15,4,-1,-2,-2,-1,-1
10199,10199,1503600570549,-9,-1,0,1,-2,-4,-4,3
10200,10200,1503600570556,2,-17,-7,-8,-1,-2,0,0
10201,10201,1503600570572,5,-2,5,3,4,3,-1,0
10202,10202,1503600570578,5,-11,-4,0,2,-1,1,-11
10203,10203,1503600570586,-6,-7,-5,-3,-1,-2,-2,-2
10204,10204,1503600570593,26,6,-1,-1,-1,1,0,9
10205,10205,1503600570609,6,-2,-1,7,4,-2,0,-4
10206,10206,1503600570616,-5,-3,1,-2,-2,-7,0,-1
10207,10207,1503600570634,8,17,-2,-7,-7,-4,3,4
10208,10208,1503600570641,-19,25,4,1,1,2,1,5
10209,10209,1503600570646,-3,-5,0,-1,2,7,4,2
10210,10210,1503600570653,-5,15,10,4,0,-2,1,13
10211,10211,1503600570668,-16,-2,-3,0,-1,1,-4,-8
10212,10212,1503600570676,-5,-43,-4,-2,-1,2,0,1
10213,10213,1503600570691,25,31,19,5,-1,-3,0,-1
10214,10214,1503600570699,0,-16,-8,-4,-3,1,-4,-1
10215,10215,1503600570708,-23,-39,-11,-6,-2,2,-1,-2
10216,10216,1503600570713,6,-4,-7,0,-2,-3,0,2
10217,10217,1503600570729,12,6,6,1,1,5,-1,9
10218,10218,1503600570736,-22,1,-3,-3,-5,-9,-3,-1
10219,10219,1503600570751,5,8,0,-1,-4,-11,0,0
10220,10220,1503600570758,-8,10,2,-3,-2,-2,-2,-15
10221,10221,1503600570766,-66,11,7,1,-3,-5,-7,-18
10222,10222,1503600570774,17,6,0,1,1,1,-1,11
10223,10223,1503600570789,-7,-15,-6,1,4,7,1,0
10224,10224,1503600570795,-22,-9,2,-2,4,11,-2,-14
10225,10225,1503600570811,14,20,0,-5,-4,-3,1,4
10226,10226,1503600570818,-6,14,-5,-4,-4,-3,0,-2
10227,10227,1503600570826,13,-8,-6,-3,-2,3,-2,-3
10228,10228,1503600570841,12,-11,0,4,3,-4,1,-2
10229,10229,1503600570855,19,51,7,-4,-6,-8,-3,-7
10230,10230,1503600570856,-14,4,0,3,3,-3,-10,7
10231,10231,1503600570871,-10,-22,-5,-1,-6,-29,1,-6
10232,10232,1503600570878,-3,-4,-1,-2,-1,-4,5,0
10233,10233,1503600570886,1,20,8,2,1,6,-5,6
10234,10234,1503600570901,-15,-8,-3,0,0,-4,0,-3
10235,10235,1503600570909,-28,-41,-11,-4,-2,4,4,-6
10236,10236,1503600570915,24,38,2,-1,-1,6,-1,3
10237,10237,1503600570932,-20,-23,-5,-2,1,0,-2,-7
10238,10238,1503600570939,-14,-14,-4,0,-10,-11,0,2
10239,10239,1503600570946,-5,-7,-2,-4,3,28,-7,-1
10240,10240,1503600570961,1,-13,-6,-4,2,17,-6,-11
10241,10241,1503600570970,22,28,-1,-5,-3,2,0,3
10242,10242,1503600570976,-9,21,13,2,1,-2,2,-18
10243,10243,1503600570991,-12,-28,-9,-1,3,7,1,-1
10244,10244,1503600570992,31,28,10,4,0,-2,2,7
10245,10245,1503600571002,-11,-13,-3,-1,0,-4,2,-2
10246,10246,1503600571007,26,19,3,-1,-7,-17,-2,6
10247,10247,1503600571020,18,8,4,6,10,18,2,9
10248,10248,1503600571021,-12,-23,-7,-6,8,3,-2,-2
10249,10249,1503600571028,3,-11,5,3,-1,-8,2,6
10250,10250,1503600571036,-10,-11,-1,2,-1,-2,0,-10
10251,10251,1503600571051,-44,-18,-8,-1,5,6,-3,-3
10252,10252,1503600571058,22,13,3,-1,-4,-6,10,11
10253,10253,1503600571068,-1,-18,-8,0,-1,-6,1,-1
10254,10254,1503600571081,14,7,-4,-1,-1,-7,-5,-5
10255,10255,1503600571088,14,-13,-7,-3,1,2,1,-3
10256,10256,1503600571095,11,3,-1,-3,-4,4,-2,6
10257,10257,1503600571111,11,-22,-9,-1,-8,-6,-8,-1
10258,10258,1503600571118,15,-10,-2,-3,-19,-4,-1,2
10259,10259,1503600571126,2,13,11,2,-5,-7,-2,-5
10260,10260,1503600571141,4,22,2,2,6,4,0,5
10261,10261,1503600571149,5,12,-2,-2,-1,-8,6,2
10934,10934,1503600577748,0,-5,-2,-1,0,-3,1,2
10935,10935,1503600577757,1,-1,-2,1,-2,0,-3,-14
10936,10936,1503600577763,2,30,5,2,2,1,1,2
10937,10937,1503600577778,2,-1,4,0,-4,-3,0,5
10938,10938,1503600577786,2,-6,-5,-1,1,-1,-2,3
10939,10939,1503600577793,-5,4,0,-2,-1,1,-3,-1
10940,10940,1503600577808,2,-4,1,-2,-5,-3,-1,1
10941,10941,1503600577816,-1,-4,-2,0,1,-1,-1,1
10942,10942,1503600577824,-1,-2,-1,0,0,0,-1,-2
10943,10943,1503600577838,-2,0,-5,-1,-3,-3,0,-4
10944,10944,1503600577845,2,3,1,0,-3,2,0,-1
10945,10945,1503600577853,-1,1,-2,-3,-1,-1,-1,3
10946,10946,1503600577868,-2,-4,0,-1,-1,-2,-1,-1
10947,10947,1503600577876,7,16,6,2,0,-1,0,3
10948,10948,1503600577883,-1,-2,0,1,-1,1,1,0
10949,10949,1503600577898,-1,-3,-3,-1,1,1,1,-1
10950,10950,1503600577905,0,-8,-1,-2,0,-1,-2,-2
10951,10951,1503600577917,-7,-4,-5,-3,-3,-1,-2,-5
10952,10952,1503600577928,-1,-4,-2,-1,3,0,-1,0
10953,10953,1503600577936,0,0,0,-3,-1,1,-1,-1
10954,10954,1503600577943,-2,14,7,2,-3,-4,-2,-3
10955,10955,1503600577958,0,-15,-7,-1,-1,0,0,-1
10956,10956,1503600577965,-2,-9,-2,0,2,-2,0,2
10957,10957,1503600577973,-4,-10,1,-1,-2,-2,-1,-1
10958,10958,1503600577988,2,4,2,-2,-2,-1,-2,-1
10959,10959,1503600577996,-3,-8,-3,-2,-2,-1,-1,-2
10960,10960,1503600578003,1,0,-1,-1,-1,0,0,-1
10961,10961,1503600578021,-4,-10,-3,1,3,0,-2,-2
10962,10962,1503600578025,0,-9,-6,-2,-1,0,-2,-1
10963,10963,1503600578033,0,6,-1,1,-5,-2,0,2
10964,10964,1503600578051,0,-4,-4,-3,0,0,-1,-2
10965,10965,1503600578063,-2,4,1,0,-5,-2,-3,0
10966,10966,1503600578064,0,-2,-1,-2,-1,-2,1,2
10967,10967,1503600578077,-3,-5,-3,-2,-1,-1,-2,-3
10968,10968,1503600578078,1,3,4,1,1,1,-2,1
10969,10969,1503600578092,-1,0,-1,-3,-4,-1,1,0
10970,10970,1503600578094,-1,3,3,0,1,-2,-1,-5
10971,10971,1503600578108,-1,-8,-1,1,-1,1,-1,-2
10972,10972,1503600578120,-1,9,-3,-1,0,-2,0,-1
10973,10973,1503600578123,0,0,-2,0,-2,0,0,0
10974,10974,1503600578138,0,-4,-1,-1,2,0,-2,-1
10975,10975,1503600578145,-8,-16,-8,-1,-1,-3,-2,-7
10976,10976,1503600578156,-1,5,2,1,-2,4,2,2
10977,10977,1503600578168,-2,4,2,-1,-2,0,-3,0
10978,10978,1503600578176,2,-2,-1,-1,-1,0,0,1
10979,10979,1503600578185,-5,-5,-2,-1,-1,-3,-2,-1
10980,10980,1503600578198,5,0,-3,-2,0,-1,-2,3
10981,10981,1503600578205,-2,-10,0,-1,-1,-1,-1,-3
10982,10982,1503600578213,0,5,0,0,3,2,0,0
10983,10983,1503600578228,0,-3,-1,-1,-5,-2,1,-1
10984,10984,1503600578236,-1,2,4,-2,-1,-2,1,0
10985,10985,1503600578243,-2,4,-2,-1,-4,0,-2,0
10986,10986,1503600578258,-4,-2,-5,-2,-6,-5,-2,-2
10987,10987,1503600578265,3,0,-3,-1,4,-2,0,3
10988,10988,1503600578280,-7,1,-2,0,1,-3,-2,-4
10989,10989,1503600578288,3,-1,-2,0,-4,2,2,2
10990,10990,1503600578296,-1,-6,-3,0,-2,-4,0,-2
10991,10991,1503600578310,1,6,-1,1,5,2,-2,-1
10992,10992,1503600578320,-1,7,0,-1,-2,-1,-3,-1
10993,10993,1503600578325,0,-2,-1,-1,3,-1,-1,-1
10994,10994,1503600578340,2,4,3,0,1,-1,0,1
10995,10995,1503600578348,-4,4,3,-1,-2,-2,-1,-4
10996,10996,1503600578356,1,-4,0,-1,-2,1,1,1
10997,10997,1503600578370,-1,-1,-2,-1,-4,-2,-1,-1
10998,10998,1503600578378,0,-2,-1,-1,-4,-1,-1,-1
10999,10999,1503600578387,-1,10,2,-2,1,1,-1,-4
11000,11000,1503600578400,-1,-10,-3,-2,-1,0,0,-2
11001,11001,1503600578408,0,-3,2,-1,1,-2,0,2
11002,11002,1503600578416,0,-6,-4,-1,-2,-2,-3,-3
11003,11003,1503600578430,-2,12,-3,-2,2,0,-1,3
11004,11004,1503600578438,-3,0,-4,-1,-3,-2,0,-3
11005,11005,1503600578445,-2,-2,-3,1,-1,0,-2,-4
11006,11006,1503600578461,0,2,0,-1,-3,-3,-1,1
11007,11007,1503600578462,1,-18,-6,-3,0,-1,-2,-1
11008,11008,1503600578468,0,4,0,0,2,1,0,-1
11009,11009,1503600578476,0,3,3,0,-1,-1,-3,-1
11010,11010,1503600578490,0,-3,2,0,-2,-1,0,3
11011,11011,1503600578500,-1,3,-3,-1,-2,-1,-1,-3
11012,11012,1503600578501,-4,4,3,0,1,-1,1,2
11013,11013,1503600578505,-3,7,2,-1,-4,1,-2,-3
11014,11014,1503600578524,-7,-2,-1,-1,-2,-2,-3,-4
11015,11015,1503600578529,-2,-7,-2,-1,0,-1,1,2
11016,11016,1503600578536,1,-15,-3,-2,-2,-2,2,1
11017,11017,1503600578549,3,-7,-3,-1,3,2,-1,1
11018,11018,1503600578560,-1,-6,-3,-1,0,0,-2,-2
11019,11019,1503600578565,-1,-14,-4,-1,-1,-4,0,3
11020,11020,1503600578580,3,0,0,1,2,0,-2,0
11021,11021,1503600578589,-4,2,0,0,-5,0,-1,-5
11022,11022,1503600578596,1,6,1,-1,-4,0,1,1
11023,11023,1503600578609,1,-3,-4,-2,2,-1,-2,-2
11024,11024,1503600578618,-1,10,2,0,-1,-2,-3,-4
11025,11025,1503600578628,-1,5,-2,0,0,0,0,-1
11026,11026,1503600578640,0,-3,1,0,4,1,-1,1
11027,11027,1503600578648,-3,12,4,1,2,-1,-3,-4
11028,11028,1503600578658,-2,-9,-2,-3,1,2,-1,2
11029,11029,1503600578669,-2,-5,2,0,-2,-2,0,1
11030,11030,1503600578678,3,-7,-4,-2,1,0,-2,2
11031,11031,1503600578687,2,3,-1,0,1,-1,1,0
11032,11032,1503600578700,-1,4,0,0,-3,-2,-2,-1
11033,11033,1503600578708,0,-6,0,-1,-2,1,0,0
11034,11034,1503600578716,-2,-2,1,1,-1,-2,-2,-1
11035,11035,1503600578730,-1,2,-1,-1,3,0,1,-1
11036,11036,1503600578738,-5,5,-3,-4,-1,-1,0,-4
11037,11037,1503600578745,0,10,2,-1,-6,-3,-4,-4
11038,11038,1503600578761,-4,4,3,-1,-1,1,2,0
11039,11039,1503600578768,0,-5,-4,0,-2,0,-2,0
11040,11040,1503600578776,0,2,-3,-1,0,-1,-2,1
11041,11041,1503600578777,1,0,0,1,1,0,0,0
11042,11042,1503600578790,0,-8,-1,0,-1,-1,-1,0
11043,11043,1503600578799,2,16,2,1,3,-1,1,1
11044,11044,1503600578805,0,0,-2,-2,-4,-3,-3,-5
11045,11045,1503600578823,-2,-4,-3,-1,-1,-2,-2,-1
11046,11046,1503600578828,-3,1,-1,-4,-7,0,1,1
11047,11047,1503600578836,2,-7,-2,-2,-2,0,-2,-1
11048,11048,1503600578849,1,-4,0,0,0,-2,0,-1
11049,11049,1503600578860,-2,-6,-5,-3,-1,1,-2,-2
11050,11050,1503600578865,-2,3,-2,-1,3,0,0,1
11051,11051,1503600578880,-2,2,1,1,1,-1,-1,-1
11052,11052,1503600578890,3,4,0,-2,0,3,-1,1
11053,11053,1503600578903,-3,-3,0,1,-1,-2,0,-4
11054,11054,1503600578909,2,-7,-3,-1,4,0,1,0
11055,11055,1503600578918,-2,4,-4,-1,-4,0,-2,-1
11056,11056,1503600578926,-3,-1,-3,0,-1,-1,0,1
11057,11057,1503600578940,0,3,0,-4,0,-2,0,0
11058,11058,1503600578948,-4,-4,0,-2,0,-4,-4,-3
11059,11059,1503600578959,-2,7,2,0,-3,0,-3,0
11060,11060,1503600578971,0,10,-1,0,-2,-2,-2,-5
11061,11061,1503600578978,-1,1,-3,-2,-1,-2,0,1
11062,11062,1503600578985,-1,-3,7,4,0,1,1,3
11063,11063,1503600579000,0,0,1,1,1,-3,0,0
11064,11064,1503600579008,0,-4,-2,-3,-5,-1,-1,0
11065,11065,1503600579016,-4,-6,-5,-2,-4,-4,-1,-3
11066,11066,1503600579030,-1,-6,-1,-2,0,1,0,-3
11067,11067,1503600579038,3,-5,1,0,0,-2,0,2
11068,11068,1503600579052,-2,16,5,0,-1,-1,-2,-3
11069,11069,1503600579060,-2,4,4,1,2,3,-1,-2
11070,11070,1503600579068,1,-10,-5,-2,1,0,0,2
11071,11071,1503600579076,0,-1,2,-3,0,0,0,0
11072,11072,1503600579095,-1,-1,-3,0,-2,-3,-1,-1
11073,11073,1503600579099,-2,-5,-3,-1,1,-1,-2,2
11074,11074,1503600579105,1,-2,-2,0,-1,-2,-1,8
11075,11075,1503600579120,-2,2,1,0,-4,1,0,2
11076,11076,1503600579128,-2,1,1,-3,0,1,-2,-5
11077,11077,1503600579136,0,0,-2,0,-1,-1,1,-4
11078,11078,1503600579149,-1,20,2,0,-1,-2,1,-3
11079,11079,1503600579159,-2,-11,-5,-2,-1,-1,-2,-3
11080,11080,1503600579166,-1,-16,-8,-1,3,0,-1,-4
11081,11081,1503600579180,3,3,0,1,-2,-1,2,5
11082,11082,1503600579188,1,-14,-4,-2,-1,0,-2,2
11083,11083,1503600579203,-2,-2,0,0,-1,-1,0,-6
11084,11084,1503600579209,-1,-4,-3,-3,-1,0,0,-2
11085,11085,1503600579218,-2,-2,-1,0,-3,-1,-1,-2
11086,11086,1503600579233,2,-1,-1,-1,-2,-1,-1,0
11087,11087,1503600579241,-4,8,0,-2,1,-1,0,-4
11088,11088,1503600579248,-1,-9,-2,-1,-1,-3,-3,-6
11089,11089,1503600579264,-3,-10,-6,0,3,2,-1,-3
11090,11090,1503600579265,-3,-4,-1,-1,1,-3,-2,-4
11091,11091,1503600579270,-2,4,1,-1,-2,2,2,1
11092,11092,1503600579278,0,13,3,0,-1,0,0,0
11093,11093,1503600579293,1,13,2,-1,-1,-1,0,-1
11094,11094,1503600579301,0,-7,-4,-2,2,1,0,3
11095,11095,1503600579308,3,-8,-3,-3,-3,-2,0,2
11096,11096,1503600579325,2,9,1,-1,1,-1,0,-1
11097,11097,1503600579330,0,-3,-1,0,-2,-2,-2,-2
11098,11098,1503600579338,0,-16,-5,1,-1,1,-1,1
11099,11099,1503600579352,0,0,1,1,-1,0,1,5
11100,11100,1503600579360,2,2,3,-2,0,1,0,0
11101,11101,1503600579375,-3,-1,1,-1,-1,-1,0,0
11102,11102,1503600579383,-1,-7,-1,-2,-3,-2,0,0
11103,11103,1503600579398,-3,2,-2,-1,-2,-3,-4,-6
11104,11104,1503600579399,-4,-5,-1,-3,-1,-2,-3,-6
11105,11105,1503600579412,-4,2,1,-2,-1,-1,1,0
11106,11106,1503600579420,3,-1,-1,0,-1,-3,-1,-1
11107,11107,1503600579428,2,5,0,1,-1,-3,-2,-1
11108,11108,1503600579443,1,8,0,0,1,1,-2,-1
11109,11109,1503600579449,-3,-4,-1,-1,0,-1,0,-2
11110,11110,1503600579461,0,1,0,0,-2,-2,1,4
11111,11111,1503600579462,0,-1,-6,-2,-4,-1,-4,0
11112,11112,1503600579472,2,1,-1,0,5,4,-1,0
11113,11113,1503600579480,-1,-1,0,1,0,-1,2,1
11114,11114,1503600579488,-6,-8,0,-1,-3,0,0,-2
11115,11115,1503600579503,-1,-12,-3,-1,-2,0,0,1
11116,11116,1503600579509,0,1,2,0,3,1,0,-1
11117,11117,1503600579526,0,5,2,0,2,0,2,-1
11118,11118,1503600579532,0,-1,-2,-1,-3,-3,-2,0
11119,11119,1503600579540,1,4,1,-1,-3,-3,-4,-2
11120,11120,1503600579548,-7,-2,-5,-3,-5,-2,-3,-2
11121,11121,1503600579566,-3,-1,-2,0,1,-1,-1,-2
11122,11122,1503600579570,6,-2,-4,-4,-3,-3,1,3
11123,11123,1503600579578,0,8,3,-1,0,0,-2,-1
11124,11124,1503600579597,3,-10,-5,0,1,1,0,-3
11125,11125,1503600579601,2,-1,-1,-1,-2,-1,-1,2
11126,11126,1503600579608,-1,-16,2,-1,-2,-3,-1,0
11127,11127,1503600579623,-8,-9,-1,1,2,1,-1,-6
11128,11128,1503600579630,-1,-1,-3,2,1,-1,-1,0
11129,11129,1503600579638,1,0,-5,-1,-4,-1,-1,-1
11130,11130,1503600579652,0,5,2,1,0,-1,2,0
11131,11131,1503600579661,1,0,-3,-2,0,-1,0,0
11132,11132,1503600579668,-2,-3,-1,0,-2,0,-2,-1
11133,11133,1503600579683,2,-3,0,1,3,0,0,-2
11134,11134,1503600579689,2,4,3,2,0,2,1,-2
11135,11135,1503600579698,0,13,1,-1,-4,-5,-1,0
11136,11136,1503600579712,1,6,-2,-2,0,2,0,0
11137,11137,1503600579720,2,14,1,-2,-3,-1,0,1
11138,11138,1503600579729,-5,-1,-2,-1,-2,-2,-2,-4
11139,11139,1503600579743,-3,-7,1,1,0,1,-2,1
11140,11140,1503600579750,-1,16,4,2,2,1,0,-1
11141,11141,1503600579758,-3,-6,-2,-2,-3,0,0,-3
11142,11142,1503600579772,-2,6,3,-2,-3,-1,1,0
11143,11143,1503600579780,0,-2,-3,-4,-3,-2,-2,1
11144,11144,1503600579788,2,-7,-3,-4,-2,-2,-3,0
11145,11145,1503600579803,0,10,1,2,1,3,0,-2
11146,11146,1503600579809,3,3,0,-1,-2,-2,1,0
11147,11147,1503600579818,0,-4,-2,1,1,-3,1,1
11148,11148,1503600579833,-1,0,-3,-1,0,-1,-1,-3
11149,11149,1503600579840,-1,-6,1,-1,-2,1,0,2
11150,11150,1503600579847,0,-3,-5,-1,0,0,0,0
11151,11151,1503600579848,3,3,-2,2,2,-1,-1,-2
11152,11152,1503600579864,0,-3,4,3,1,-2,-1,-2
11153,11153,1503600579871,-3,-13,-2,-1,-1,0,-2,-1
11154,11154,1503600579878,1,14,1,-3,-3,-3,-2,-3
11155,11155,1503600579892,0,0,2,0,0,1,-3,0
11156,11156,1503600579900,0,-5,-2,-4,-4,-3,0,-1
11157,11157,1503600579908,-3,15,0,0,-2,-3,-2,-3
11158,11158,1503600579923,0,-6,-2,2,1,0,-2,0
11159,11159,1503600579931,-1,-5,-2,-2,-1,0,-2,0
11160,11160,1503600579940,-3,-3,0,0,1,-1,0,-1
11161,11161,1503600579952,-5,8,0,-1,-2,-1,0,1
11162,11162,1503600579960,-3,1,1,-1,1,0,-2,-1
11163,11163,1503600579968,3,-7,-2,-3,-2,-2,-3,2
11164,11164,1503600579983,-2,-9,-2,-1,2,1,-2,2
11165,11165,1503600579990,0,-10,-1,3,1,-1,2,2
11166,11166,1503600580001,0,2,-3,-2,-1,0,-1,-1
11167,11167,1503600580002,-2,-13,-4,-3,-5,-4,-1,-3
11168,11168,1503600580012,0,6,0,0,-1,1,0,1
11787,11787,1503600586050,8,-8,-4,-4,0,-2,1,1
11788,11788,1503600586056,1,-15,-3,-1,-3,0,-4,0
11789,11789,1503600586065,-1,-30,-6,0,-4,-3,1,0
11790,11790,1503600586081,-1,0,-2,-3,-1,1,-4,-7
11791,11791,1503600586088,-1,-5,-3,-2,-2,-3,1,0
11792,11792,1503600586094,-6,-5,1,-2,1,-5,-1,8
11793,11793,1503600586111,-3,-5,1,8,-1,1,1,-8
11794,11794,1503600586116,5,-2,-2,-2,-1,-2,1,-3
11795,11795,1503600586125,8,3,2,-2,1,1,-2,4
11796,11796,1503600586141,1,0,-2,2,-2,4,3,0
11797,11797,1503600586148,-1,4,1,-5,2,-1,-3,2
11798,11798,1503600586154,-8,6,4,-2,-1,-3,-2,1
11799,11799,1503600586170,-2,1,2,0,0,-1,0,-5
11800,11800,1503600586177,-4,10,0,-2,-2,-2,-1,-1
11801,11801,1503600586185,-11,-4,-6,-3,0,3,0,7
11802,11802,1503600586199,-8,6,5,0,1,-1,-2,-1
11803,11803,1503600586208,-3,-1,-4,-2,-2,2,1,0
11804,11804,1503600586216,2,6,4,9,-4,-2,1,1
11805,11805,1503600586230,-21,2,-2,-1,-2,-2,-1,-4
11806,11806,1503600586236,-10,-29,-6,-1,3,5,1,0
11807,11807,1503600586237,2,10,0,-6,-4,-1,-3,-2
11808,11808,1503600586245,8,2,-2,-2,-4,-1,-2,-5
11809,11809,1503600586263,-6,-2,-6,-1,-1,-2,1,-1
11810,11810,1503600586267,6,4,2,1,0,-2,-3,0
11811,11811,1503600586283,6,-14,1,-2,3,-1,-3,0
11812,11812,1503600586290,-2,2,0,-2,-3,-3,-2,0
11813,11813,1503600586298,4,-7,-3,-1,-1,0,-1,4
11814,11814,1503600586308,-3,-6,-6,1,-4,-3,-1,-2
11815,11815,1503600586320,-1,-11,-6,-4,0,0,-2,3
11816,11816,1503600586327,2,-3,1,-3,0,0,-2,-3
11817,11817,1503600586343,-10,19,1,1,0,-2,0,-7
11818,11818,1503600586351,2,3,1,1,3,-2,2,-2
11819,11819,1503600586358,1,-8,-1,-1,1,-2,0,-2
11820,11820,1503600586365,-6,-2,-5,-4,-1,1,2,-14
11821,11821,1503600586381,1,-10,-5,-1,-1,3,0,0
11822,11822,1503600586387,-1,-7,-7,-3,0,2,-1,-2
11823,11823,1503600586403,13,31,10,-1,0,-3,1,0
11824,11824,1503600586411,2,17,12,2,1,-1,0,5
11825,11825,1503600586418,0,-6,0,2,-2,0,-2,-5
11826,11826,1503600586425,-2,-8,0,6,-2,0,0,4
11827,11827,1503600586444,-3,-21,-3,0,-2,-1,0,1
11828,11828,1503600586447,1,-9,6,-1,0,-1,-2,-1
11829,11829,1503600586463,-6,-12,-7,-3,0,0,2,6
11830,11830,1503600586470,-4,-23,-10,-3,-1,2,0,-2
11831,11831,1503600586478,-2,8,1,-4,-6,-4,-3,2
11832,11832,1503600586485,-2,-1,-6,-4,-1,0,-2,3
11833,11833,1503600586500,-1,1,2,-1,0,-2,-1,-4
11834,11834,1503600586509,1,19,2,-2,1,-3,-5,-5
11835,11835,1503600586523,-10,9,1,0,2,2,-3,-6
11836,11836,1503600586536,-2,-5,2,1,1,-2,0,0
11837,11837,1503600586547,-1,17,-4,-9,0,0,1,-1
11838,11838,1503600586561,-9,-23,-6,-2,5,0,0,-16
11839,11839,1503600586567,0,-4,0,-2,0,-2,-1,2
11840,11840,1503600586584,3,-1,1,0,0,2,0,6
11841,11841,1503600586590,-2,1,1,2,0,2,-2,-5
11842,11842,1503600586598,2,13,1,2,-1,0,-3,1
11843,11843,1503600586605,3,21,3,0,0,-4,-1,2
11844,11844,1503600586622,0,-2,-2,-1,-1,5,1,4
11845,11845,1503600586627,-1,10,-2,1,-2,0,0,-2
11846,11846,1503600586646,-1,-6,-1,-2,-4,-7,1,0
11847,11847,1503600586650,6,5,0,-1,2,-4,0,2
11848,11848,1503600586651,-14,-14,-6,0,-5,-6,0,-2
11849,11849,1503600586658,2,3,0,-1,1,6,1,-1
11850,11850,1503600586672,3,-8,-6,-9,-2,0,-2,-3
11851,11851,1503600586682,1,-3,-8,-2,-2,-3,-3,-1
11852,11852,1503600586687,-1,12,7,1,3,0,0,1
11853,11853,1503600586688,1,-5,4,1,-2,-3,-1,0
11854,11854,1503600586703,0,18,4,1,4,-4,-3,-5
11855,11855,1503600586711,-2,-10,-3,2,-1,1,-2,1
11856,11856,1503600586719,-1,-1,5,1,-3,-2,-1,2
11857,11857,1503600586733,-1,3,1,1,-1,-5,-4,-15
11858,11858,1503600586740,0,-5,-4,-5,-3,-5,0,-1
11859,11859,1503600586747,-1,-4,-3,0,2,-1,-1,1
11860,11860,1503600586748,-1,-13,-2,-2,1,2,3,6
11861,11861,1503600586764,-2,-7,-4,-3,-7,-2,-1,1
11862,11862,1503600586770,-1,2,-4,-4,1,6,0,-1
11863,11863,1503600586780,-5,-2,-3,0,-1,1,-3,-13
11864,11864,1503600586793,2,13,0,-1,-3,-2,0,5
11865,11865,1503600586801,10,4,4,0,-2,0,2,-2
11866,11866,1503600586807,2,0,9,5,6,8,0,-3
11867,11867,1503600586823,1,-9,-3,-1,-4,-1,-1,2
11868,11868,1503600586830,-1,-4,-1,0,-4,-4,-1,5
11869,11869,1503600586838,1,2,-1,2,-1,1,-6,2
11870,11870,1503600586853,2,1,-1,2,0,-3,1,-3
11871,11871,1503600586861,-5,-3,-2,-3,3,2,2,1
11872,11872,1503600586867,3,0,6,10,0,0,-3,-1
11873,11873,1503600586884,1,-7,-1,-3,-1,-5,0,12
11874,11874,1503600586890,-1,14,2,-3,1,-1,4,1
11875,11875,1503600586898,-2,-7,0,2,-1,1,0,0
11876,11876,1503600586913,-2,-12,-7,-4,-3,-3,-2,3
11877,11877,1503600586921,1,-4,-3,-2,0,0,-1,-1
11878,11878,1503600586927,1,-2,-4,-3,-4,-1,-2,-2
11879,11879,1503600586946,-3,16,1,1,-6,0,-3,6
11880,11880,1503600586951,0,3,2,0,3,6,2,-1
11881,11881,1503600586958,1,-5,-2,-2,2,1,2,0
11882,11882,1503600586972,-2,0,-4,-11,-4,-3,-3,-4
11883,11883,1503600586983,3,-33,0,0,1,-3,2,-4
11884,11884,1503600586988,-1,-16,-3,-2,-2,-4,1,6
11885,11885,1503600587003,-4,5,3,-1,-2,-2,-2,-3
11886,11886,1503600587013,-2,-2,-2,0,-1,-3,-2,1
11887,11887,1503600587020,0,-3,1,1,4,-3,1,-1
11888,11888,1503600587032,2,7,2,1,-2,-2,-1,-4
11889,11889,1503600587049,1,2,-3,-1,1,-19,1,2
11890,11890,1503600587063,1,5,-2,-3,0,14,0,0
11891,11891,1503600587070,-2,-3,0,1,-2,22,-2,-5
11892,11892,1503600587080,1,20,5,1,-1,7,-1,3
11893,11893,1503600587093,3,2,5,6,0,-1,-2,-17
11894,11894,1503600587100,1,-11,-4,2,1,-5,0,3
11895,11895,1503600587107,-2,8,-1,-3,1,-2,0,4
11896,11896,1503600587123,-1,-6,0,-4,-1,-5,-4,-3
11897,11897,1503600587130,-4,8,-1,-1,-2,-2,-3,1
11898,11898,1503600587139,-6,4,-3,-1,-3,-3,-3,-8
11899,11899,1503600587153,-3,-19,-8,-1,-1,-3,0,4
11900,11900,1503600587160,1,5,2,0,0,0,0,6
11901,11901,1503600587167,-1,7,2,-10,3,2,0,-1
11902,11902,1503600587183,2,-15,-11,7,0,1,2,3
11903,11903,1503600587184,1,-3,6,1,1,0,-5,3
11904,11904,1503600587190,-1,25,5,-2,-2,-3,-1,0
11905,11905,1503600587198,-2,-1,-5,0,-1,0,1,-6
11906,11906,1503600587214,-1,10,2,1,1,-2,-4,-2
11907,11907,1503600587221,-2,-4,-2,-1,2,-1,1,0
11908,11908,1503600587228,-2,-22,-9,0,0,-2,-1,0
11909,11909,1503600587243,1,5,0,0,-5,0,0,0
11910,11910,1503600587250,1,10,4,1,0,2,-2,0
11911,11911,1503600587260,-2,-9,0,2,-6,-3,-1,-4
11912,11912,1503600587272,-4,-18,-4,-1,-3,-2,0,2
11913,11913,1503600587283,4,10,4,7,-2,-1,1,2
11914,11914,1503600587290,4,-14,-5,-2,0,0,2,3
11915,11915,1503600587303,-2,-12,-4,-6,-5,-1,3,0
11916,11916,1503600587310,2,4,2,4,-1,-1,-2,-10
11917,11917,1503600587319,6,-6,-2,-2,3,1,0,1
11918,11918,1503600587332,-1,-6,-2,-2,-5,-2,-2,0
11919,11919,1503600587340,-2,-5,-4,-3,-2,0,2,-1
11920,11920,1503600587348,-3,14,4,0,0,-3,-1,-3
11921,11921,1503600587363,-2,4,-1,0,2,0,-4,-2
11922,11922,1503600587370,0,-9,0,-9,-2,0,0,1
11923,11923,1503600587379,-3,-3,2,-3,-2,-2,-1,1
11924,11924,1503600587392,-1,9,0,-1,2,0,-1,0
11925,11925,1503600587400,0,1,2,1,-1,1,0,-2
11926,11926,1503600587407,-6,-18,-5,1,1,-3,-5,-3
11927,11927,1503600587424,-3,20,7,1,-1,-3,-1,-1
11928,11928,1503600587430,2,3,-1,2,-2,2,2,-1
11929,11929,1503600587438,-1,-9,-4,-3,-3,-1,-2,-6
11930,11930,1503600587453,3,3,-1,2,0,1,3,3
11931,11931,1503600587467,3,16,0,0,-3,-3,-1,0
11932,11932,1503600587468,-2,-16,-6,-2,-1,-2,1,1
11933,11933,1503600587484,-2,-13,-8,-7,1,1,-1,-1
11934,11934,1503600587491,-1,2,1,3,1,-2,2,-2
11935,11935,1503600587500,1,15,-1,-1,1,-3,-2,-2
11936,11936,1503600587512,-4,5,2,1,0,-1,-2,2
11937,11937,1503600587521,-3,-5,-5,0,-5,0,-1,2
11938,11938,1503600587527,1,-3,2,-3,-1,1,-1,-1
11939,11939,1503600587543,1,18,-1,-2,0,-2,0,-2
11940,11940,1503600587551,-1,14,0,-1,-1,-2,-4,-3
11941,11941,1503600587559,-5,-12,-4,6,-1,0,0,2
11942,11942,1503600587573,0,-13,-1,-1,0,1,-2,-3
11943,11943,1503600587585,8,5,-1,-3,4,-1,-2,6
11944,11944,1503600587595,3,-2,1,0,1,-1,0,3
11945,11945,1503600587603,0,-6,1,0,-1,0,-1,-2
11946,11946,1503600587610,0,7,-1,-1,-1,1,0,-2
11947,11947,1503600587625,-2,4,2,1,-1,2,1,-3
11948,11948,1503600587632,-3,1,0,1,-2,-1,-2,-1
11949,11949,1503600587640,-3,-11,-3,0,-2,-3,2,-1
11950,11950,1503600587655,-4,-9,-8,-3,-3,0,1,-1
11951,11951,1503600587669,-3,-21,-3,6,3,0,-1,0
11952,11952,1503600587670,-7,-13,-4,-1,-1,0,-1,0
11953,11953,1503600587685,2,15,-2,-6,1,-1,-2,-1
11954,11954,1503600587692,-1,15,3,1,0,1,0,0
11955,11955,1503600587700,-2,-8,1,-1,-2,1,-3,-4
11956,11956,1503600587718,-4,-7,-6,-4,-4,-3,-4,2
11957,11957,1503600587723,-4,-5,-2,-1,-5,-5,-4,-1
11958,11958,1503600587730,1,-4,-2,-1,-1,1,1,0
11959,11959,1503600587745,1,-3,0,-8,-1,3,1,-6
11960,11960,1503600587752,1,-6,-1,-2,2,-2,-1,-2
11961,11961,1503600587769,-1,-1,1,-4,-3,-2,-2,0
11962,11962,1503600587775,0,-7,0,1,-1,2,1,0
11963,11963,1503600587787,-1,-5,-4,0,-2,0,1,-3
11964,11964,1503600587790,1,19,-1,2,3,-1,-1,0
11965,11965,1503600587805,0,4,3,1,-1,0,0,-1
11966,11966,1503600587812,-1,-6,0,0,0,2,-1,-1
11967,11967,1503600587820,-2,0,-2,-8,-1,-2,-2,0
11968,11968,1503600587835,0,-4,1,-1,-2,-2,-2,0
11969,11969,1503600587843,-2,-25,-6,-1,-1,0,-3,0
11970,11970,1503600587854,-1,-5,-1,2,6,2,0,-1
11971,11971,1503600587865,-1,7,0,0,-3,0,-3,-2
11972,11972,1503600587872,0,0,0,2,-6,-2,0,2
11973,11973,1503600587880,-1,12,2,1,1,3,0,0
11974,11974,1503600587895,0,4,2,-1,-1,0,0,-2
11975,11975,1503600587903,1,-7,-3,5,-3,-5,-2,0
11976,11976,1503600587910,0,9,2,-2,1,-2,1,0
11977,11977,1503600587925,-4,-9,0,-2,0,-1,1,6
11978,11978,1503600587932,-2,-8,-2,-3,-2,-3,-3,-7
11979,11979,1503600587940,1,2,3,1,1,0,0,-2
11980,11980,1503600587955,-2,-10,-3,-2,-1,-1,-1,0
11981,11981,1503600587963,0,-5,-7,-1,0,-2,1,0
11982,11982,1503600587970,3,-10,2,1,-1,-3,-2,-3
11983,11983,1503600587986,0,5,3,0,1,0,1,-1
11984,11984,1503600587992,0,-11,-4,2,-2,-3,-2,3
11985,11985,1503600588000,0,0,3,1,-1,-1,0,-4
11986,11986,1503600588015,2,5,1,-1,-1,0,-4,-2
11987,11987,1503600588023,-1,17,-1,-2,-1,3,0,0
11988,11988,1503600588030,0,-1,-2,-2,-3,-1,0,1
11989,11989,1503600588045,1,19,1,1,1,-1,0,0
11990,11990,1503600588054,-1,11,-1,-1,5,1,0,-3
11991,11991,1503600588060,-3,-14,-2,-1,0,0,-1,-2
11992,11992,1503600588075,-1,0,-4,-2,-1,2,-2,-2
11993,11993,1503600588090,1,-2,7,5,1,-3,-3,-2
11994,11994,1503600588091,-1,9,-1,-1,-6,-4,0,-1
11995,11995,1503600588105,-2,-1,1,-2,-1,2,1,-1
11996,11996,1503600588113,-1,-1,0,-1,-1,-2,1,-2
